Incident energy,Cross section
1E-05,4.061121
1.0625E-05,3.939867
1.125E-05,3.828863
1.1875E-05,3.726743
1.25E-05,3.63238
1.375E-05,3.46334
1.5E-05,3.315898
1.625E-05,3.185813
1.75E-05,3.069928
1.875E-05,2.965833
2E-05,2.871657
2.1875E-05,2.745831
2.375E-05,2.635217
2.5625E-05,2.536977
2.75E-05,2.448964
2.9375E-05,2.369518
3.125E-05,2.297335
3.3125E-05,2.23137
3.5E-05,2.17078
3.875E-05,2.063073
4.25E-05,1.969956
4.625E-05,1.888408
5E-05,1.816215
5.3125E-05,1.761989
5.625E-05,1.712347
5.9375E-05,1.666678
6.25E-05,1.624479
6.875E-05,1.548883
7.5E-05,1.482946
8.125E-05,1.424771
8.75E-05,1.372947
9.375E-05,1.326395
0.0001,1.284279
0.00010625,1.245936
0.0001125,1.210835
0.00011875,1.178542
0.000125,1.148703
0.0001375,1.09525
0.00015,1.048626
0.0001625,1.007491
0.000175,0.9708461
0.0001875,0.9379298
0.0002,0.9081498
0.00021875,0.8683618
0.0002375,0.833384
0.00025625,0.8023192
0.000275,0.7744884
0.00029375,0.7493667
0.0003125,0.7265414
0.00033125,0.7056826
0.00035,0.6865234
0.0003875,0.6524652
0.000425,0.6230208
0.0004625,0.5972345
0.0005,0.5744067
0.00053125,0.5572604
0.0005625,0.5415636
0.00059375,0.5271232
0.000625,0.5137799
0.0006875,0.4898773
0.00075,0.4690291
0.0008125,0.4506359
0.000875,0.4342509
0.0009375,0.4195334
0.001,0.4062187
0.0010625,0.3940972
0.001125,0.3830006
0.0011875,0.3727924
0.00125,0.3633598
0.001375,0.3464627
0.0015,0.3317248
0.001625,0.318722
0.00175,0.3071387
0.001875,0.2967339
0.002,0.2873207
0.0021875,0.2747444
0.002375,0.2636893
0.0025625,0.2538721
0.00275,0.2450781
0.0029375,0.2371412
0.003125,0.2299306
0.0033125,0.2233417
0.0035,0.2172898
0.003875,0.2065308
0.00425,0.1972275
0.004625,0.1890793
0.005,0.1818666
0.0053125,0.1764506
0.005625,0.1714941
0.0059375,0.1669358
0.00625,0.1627247
0.006875,0.1551815
0.0075,0.1486006
0.008125,0.1427927
0.00875,0.1376184
0.009375,0.1329718
0.01,0.12877
0.010625,0.1249476
0.01125,0.1214513
0.011875,0.1182373
0.0125,0.1152689
0.01375,0.1099508
0.015,0.1053084
0.01625,0.1012108
0.0175,0.0975616
0.01875,0.09428578
0.02,0.09132421
0.021325,0.08847574
0.02265,0.08588299
0.023975,0.08351073
0.0253,0.08133072
0.02684375,0.07900229
0.0283875,0.07687046
0.031475,0.07308548
0.0345625,0.06981323
0.03765,0.06695465
0.0407375,0.06443228
0.043825,0.06218579
0.0469125,0.06016889
0.05,0.05834551
0.053125,0.0566678
0.05625,0.05513569
0.059375,0.05373187
0.0625,0.0524415
0.06875,0.05013263
0.075,0.04811934
0.08125,0.04635193
0.0875,0.04478635
0.09375,0.04338845
0.1,0.04213168
0.10625,0.04099507
0.1125,0.03996187
0.11875,0.03901954
0.125,0.03816081
0.1375,0.03663582
0.15,0.03532252
0.1625,0.03418741
0.175,0.03319902
0.1875,0.03233339
0.2,0.03157184
0.2153516,0.03075787
0.2307032,0.03005809
0.2460548,0.02945598
0.2614063,0.02893872
0.2733038,0.02858963
0.2852013,0.02828146
0.2970988,0.02801092
0.3089962,0.02777512
0.3208937,0.02757113
0.3268424,0.02748046
0.3327911,0.02739737
0.3387399,0.02732168
0.3446886,0.02725305
0.3506373,0.0271912
0.3536117,0.02716276
0.356586,0.02713596
0.3596564,0.02711001
0.3627267,0.02708578
0.365797,0.02706325
0.3688673,0.0270424
0.3719376,0.02702321
0.3750079,0.02700566
0.3780782,0.02698974
0.3811485,0.02697542
0.3833722,0.02696605
0.3855958,0.02695752
0.3878194,0.02694981
0.390043,0.02694293
0.3922667,0.02693687
0.3944903,0.02693163
0.3989375,0.02692357
0.4032032,0.02691883
0.405336,0.02691756
0.4074688,0.02691701
0.4096016,0.02691719
0.4117344,0.02691809
0.4138672,0.0269197
0.4149336,0.02692078
0.416,0.02692204
0.4173448,0.02692388
0.4186895,0.02692601
0.4200343,0.02692842
0.421379,0.02693111
0.4227238,0.02693409
0.4240685,0.02693734
0.4267579,0.0269447
0.4375157,0.02698525
0.4402872,0.02699857
0.4430587,0.02701307
0.4458302,0.02702875
0.4486016,0.0270456
0.4513731,0.02706363
0.4541446,0.02708283
0.4569161,0.0271032
0.4596875,0.02712474
0.4622071,0.02714535
0.4647266,0.02716694
0.4672462,0.02718951
0.4697657,0.02721308
0.4748048,0.02726326
0.4798438,0.02731755
0.4848829,0.02737598
0.4899219,0.02743859
0.5,0.02757661
0.5290619,0.02805763
0.5708384,0.02898744
0.6126148,0.030239
0.6543913,0.03188799
0.6961677,0.03385602
0.7379442,0.03639861
0.7797206,0.03959042
0.8006089,0.04148476
0.8214971,0.04361517
0.8423853,0.04600841
0.8632735,0.04870443
0.8737177,0.05019427
0.8841618,0.05178511
0.8946059,0.05348388
0.90505,0.05530176
0.9102721,0.05625918
0.9154941,0.05725078
0.9207162,0.05827801
0.9259382,0.05934234
0.9311603,0.06044551
0.9363823,0.06158938
0.9416044,0.06277605
0.9468264,0.0640077
0.9513673,0.06511706
0.9559082,0.06626377
0.9604491,0.06744946
0.96499,0.06867586
0.9694925,0.06993391
0.973995,0.07123574
0.9784975,0.07258339
0.983,0.07397907
0.98725,0.07534263
0.9915,0.07675312
0.99575,0.07821273
1,0.07972379
1.009413,0.08326643
1.01412,0.0851465
1.018826,0.08710401
1.023533,0.08914428
1.028239,0.09127122
1.032946,0.09349079
1.037652,0.09580733
1.045506,0.09990569
1.05336,0.104319
1.06645,0.1124649
1.07954,0.1217645
1.09263,0.1324543
1.105719,0.1448314
1.119464,0.1600655
1.133208,0.1781631
1.146953,0.1999077
1.160697,0.2263657
1.174442,0.2590331
1.181314,0.2783217
1.188186,0.3000183
1.195058,0.3245423
1.20193,0.3524179
1.208802,0.3843113
1.215674,0.4210728
1.222874,0.4659981
1.230073,0.5190673
1.237273,0.5824242
1.244472,0.6589208
1.248072,0.7032873
1.251672,0.752537
1.255272,0.8074228
1.258871,0.8688312
1.262471,0.9378905
1.26607,1.015894
1.26967,1.104519
1.273269,1.205728
1.277851,1.356822
1.282432,1.538989
1.287014,1.76095
1.289305,1.890226
1.291595,2.033797
1.293886,2.193654
1.296177,2.371797
1.298468,2.570469
1.300758,2.791969
1.303049,3.039007
1.30534,3.314053
1.307631,3.619622
1.309921,3.957907
1.313505,4.557924
1.317088,5.24797
1.320672,6.02842
1.324255,6.891765
1.331422,8.794227
1.338588,10.70886
1.342941,11.72344
1.347294,12.51696
1.351647,13.01245
1.356,13.15926
1.358488,13.07923
1.362369,12.72415
1.366249,12.11687
1.370129,11.30594
1.374009,10.35149
1.38177,8.262007
1.38953,6.278923
1.39396,5.297144
1.398389,4.449994
1.402819,3.737265
1.407248,3.148881
1.411678,2.668636
1.416107,2.279116
1.420536,1.963347
1.424965,1.706541
1.428713,1.52611
1.432461,1.373008
1.436209,1.242302
1.439957,1.130013
1.443705,1.032947
1.447453,0.9485423
1.451201,0.8747398
1.454949,0.8098757
1.462445,0.7018009
1.469941,0.6161627
1.477437,0.5473652
1.484932,0.4914721
1.490384,0.4572618
1.495836,0.4275291
1.506739,0.3789848
1.517642,0.3419574
1.528545,0.3139163
1.539448,0.2931773
1.550351,0.2786329
1.561254,0.2696169
1.572157,0.2658371
1.580335,0.266462
1.588512,0.2702227
1.596689,0.2774204
1.604866,0.2885309
1.613725,0.3058203
1.622584,0.3299176
1.631443,0.3629138
1.640302,0.4080225
1.644732,0.4365986
1.649161,0.470292
1.653591,0.5102487
1.65802,0.5579113
1.66245,0.6151959
1.666879,0.68453
1.671308,0.7690775
1.675737,0.8728231
1.679826,0.9898741
1.683914,1.131956
1.688003,1.304178
1.692091,1.511668
1.695839,1.737057
1.699587,1.999036
1.703335,2.298919
1.707083,2.635735
1.710831,3.005484
1.714579,3.400552
1.722075,4.216973
1.727557,4.772402
1.733038,5.22398
1.738519,5.514767
1.744,5.60514
1.7488,5.509043
1.75245,5.332293
1.7561,5.077667
1.7634,4.397533
1.7707,3.608477
1.778,2.838906
1.783088,2.360957
1.788175,1.948105
1.793263,1.603377
1.795807,1.455525
1.79835,1.322879
1.800894,1.204227
1.803438,1.098428
1.805982,1.004263
1.808525,0.9205631
1.813613,0.7799005
1.8187,0.6683385
1.823094,0.5902051
1.827488,0.5253312
1.831882,0.4710039
1.836275,0.425111
1.840669,0.3859817
1.845063,0.3523456
1.849457,0.3232032
1.85385,0.2977767
1.862638,0.255693
1.871425,0.222493
1.880213,0.1957936
1.889,0.1739815
1.895938,0.1594487
1.902875,0.1468276
1.91675,0.1260599
1.930625,0.1097557
1.9445,0.0966734
1.958375,0.08599857
1.97225,0.07716993
1.986125,0.06978065
2,0.06352753
2.0176,0.05687585
2.0352,0.05134167
2.0528,0.04668228
2.0704,0.04272204
2.088,0.03933254
2.1056,0.03641375
2.1408,0.0316254
2.176,0.02786949
2.2112,0.02489174
2.2464,0.02249736
2.2816,0.02054964
2.3256,0.0185988
2.3696,0.01706562
2.4136,0.01587033
2.4576,0.01496043
2.5016,0.01423936
2.5456,0.01372619
2.5896,0.0133979
2.6336,0.01324643
2.704,0.01339816
2.7392,0.01368402
2.7744,0.01416365
2.8008,0.01467198
2.8272,0.01533991
2.8536,0.01620825
2.88,0.0173372
2.8987,0.01835441
2.9174,0.01962056
2.9361,0.02121977
2.9548,0.02327917
2.9735,0.0260101
2.98285,0.02773642
2.9922,0.02979652
3.00155,0.03229823
3.0109,0.03540176
3.02025,0.0393576
3.0296,0.04457991
3.0373,0.05032393
3.04115,0.05389133
3.045,0.05806835
3.04885,0.06299954
3.0527,0.06886379
3.05655,0.07587924
3.0604,0.0843068
3.06425,0.09445116
3.0681,0.1066578
3.07195,0.1213043
3.0758,0.1387845
3.07965,0.159484
3.0835,0.1837467
3.08735,0.2118332
3.0912,0.2438724
3.0956,0.2852504
3.1,0.3312628
3.1121,0.4724821
3.11815,0.5422635
3.1242,0.6032901
3.1264,0.6220452
3.1332,0.6644963
3.1366,0.6755453
3.14,0.6791848
3.14595,0.6675531
3.1519,0.6345874
3.157251,0.5899381
3.162602,0.5352211
3.173304,0.4133056
3.181186,0.3277473
3.185127,0.2895011
3.189067,0.2550963
3.193008,0.2247693
3.196948,0.1985561
3.200889,0.1762829
3.204829,0.157674
3.209263,0.1406524
3.213696,0.1272389
3.218129,0.1168669
3.222562,0.1090169
3.226995,0.1032343
3.231428,0.09913874
3.235861,0.09642327
3.240294,0.09484849
3.245713,0.0942133
3.251131,0.09478314
3.25655,0.09641255
3.261968,0.0990231
3.272805,0.1071427
3.278223,0.1127413
3.283641,0.1195
3.28906,0.1275837
3.294478,0.1372148
3.299897,0.1487026
3.305315,0.162454
3.310734,0.179026
3.316152,0.1991518
3.32157,0.2238193
3.326988,0.2543278
3.332899,0.2962676
3.335855,0.3214527
3.33881,0.3499726
3.341766,0.3823014
3.344721,0.4189101
3.347677,0.4603485
3.350632,0.5071351
3.353588,0.5598561
3.356543,0.6190194
3.359499,0.6851746
3.362454,0.7587245
3.368365,0.9293892
3.374275,1.13204
3.378216,1.284063
3.382157,1.447798
3.388068,1.709431
3.393979,1.978723
3.39989,2.238862
3.4058,2.470419
3.41035,2.616878
3.4149,2.726813
3.41945,2.793966
3.424,2.814425
3.430825,2.755786
3.438136,2.583504
3.445447,2.322852
3.452758,2.008662
3.460069,1.677389
3.469004,1.293828
3.473471,1.12207
3.477938,0.9672768
3.482406,0.8304401
3.486873,0.7115487
3.49134,0.6096788
3.495807,0.5233933
3.499902,0.4565003
3.503997,0.3998168
3.508092,0.351938
3.512187,0.3115459
3.516282,0.2774487
3.520377,0.2486004
3.524472,0.2241033
3.528566,0.2032067
3.532661,0.1852732
3.536756,0.1697936
3.540851,0.1563482
3.544946,0.1445964
3.553136,0.1251224
3.561325,0.1097327
3.569515,0.09733055
3.577705,0.08717372
3.585895,0.07874283
3.594085,0.07166636
3.602275,0.06567279
3.610465,0.0605597
3.618655,0.05617362
3.626844,0.05239694
3.643224,0.04632295
3.659604,0.0418226
3.675984,0.03859734
3.692363,0.0365172
3.704276,0.03574112
3.716188,0.03568795
3.728101,0.03657013
3.734057,0.03747818
3.740013,0.03879344
3.747831,0.04130976
3.755649,0.04500282
3.763467,0.05025524
3.767376,0.0536038
3.771284,0.05750934
3.775193,0.06202823
3.779102,0.06720675
3.786919,0.07966356
3.794737,0.09491581
3.802554,0.1125288
3.812977,0.1378331
3.8234,0.1614586
3.8288,0.1714066
3.8342,0.1789173
3.8396,0.1834645
3.845,0.1847127
3.850954,0.1821485
3.856907,0.1756596
3.862861,0.1657759
3.868814,0.1532791
3.889844,0.101551
3.895102,0.08952774
3.900359,0.07857812
3.905617,0.06884156
3.910874,0.06036317
3.916962,0.05206192
3.92305,0.0452468
3.929138,0.03972018
3.935225,0.03527018
3.941313,0.03169269
3.9474,0.02881006
3.953488,0.0264718
3.959575,0.02455851
3.965663,0.02297554
3.97175,0.02165124
3.983925,0.01957136
3.9961,0.01802021
4.008275,0.01682348
4.021558,0.0157995
4.03484,0.01498773
4.061404,0.01380064
4.087968,0.01299955
4.114532,0.01244538
4.141096,0.01206308
4.16766,0.01181264
4.220788,0.01161498
4.256207,0.01166475
4.291626,0.01184134
4.327045,0.01213999
4.362463,0.01256304
4.408951,0.01332247
4.455438,0.01434839
4.501925,0.01570056
4.548412,0.01747052
4.594899,0.01979718
4.618143,0.0212321
4.641386,0.02289415
4.66463,0.024828
4.687873,0.02708787
4.711117,0.02974722
4.73436,0.03291302
4.757604,0.03673173
4.780848,0.04139217
4.804092,0.04715171
4.827335,0.05438035
4.838957,0.05870713
4.850579,0.06362439
4.862201,0.06924493
4.873822,0.07571014
4.885444,0.08320317
4.897066,0.0919611
4.908688,0.102299
4.920309,0.11464
4.930271,0.1272497
4.940232,0.1422533
4.950194,0.160338
4.960155,0.1824637
4.970117,0.2100373
4.980078,0.2451596
4.985059,0.2665087
4.990039,0.2910822
4.99502,0.3195882
5,0.3528873
5.003908,0.3830748
5.007816,0.4175105
5.011724,0.456932
5.015631,0.5021819
5.019539,0.5542623
5.023447,0.614269
5.027355,0.6834325
5.031262,0.7630724
5.03517,0.8546579
5.039078,0.9596496
5.042986,1.079525
5.046893,1.215654
5.050801,1.369358
5.054708,1.541556
5.058616,1.732965
5.062523,1.943636
5.067459,2.236621
5.072395,2.557087
5.077331,2.900406
5.082266,3.259669
5.089256,3.777991
5.096246,4.278217
5.103236,4.723881
5.110225,5.07827
5.117613,5.318791
5.125,5.396923
5.129925,5.353981
5.13485,5.236994
5.142065,4.944532
5.14928,4.534997
5.156495,4.046157
5.16371,3.518532
5.173894,2.779167
5.178986,2.43453
5.184077,2.116093
5.189169,1.827793
5.19426,1.571635
5.199352,1.347589
5.204443,1.154416
5.208856,1.010143
5.213269,0.8854324
5.217682,0.778239
5.222094,0.6865007
5.226507,0.6081566
5.23092,0.5413396
5.235333,0.4843338
5.239745,0.435627
5.244158,0.3938732
5.248571,0.357951
5.252984,0.326903
5.257396,0.2999343
5.261809,0.2763688
5.266222,0.2556653
5.275047,0.2211266
5.283194,0.1955057
5.291341,0.1743778
5.299488,0.1567054
5.307634,0.1417441
5.315781,0.1289423
5.323927,0.1178928
5.332074,0.108279
5.34022,0.09985945
5.356514,0.08586448
5.372807,0.07477398
5.3891,0.06582636
5.405393,0.05849412
5.421687,0.05240347
5.43798,0.04728725
5.454273,0.04294926
5.470566,0.03924237
5.48686,0.03605271
5.503153,0.03329127
5.535739,0.02878267
5.568326,0.02530211
5.600912,0.02258119
5.633499,0.02043371
5.666085,0.01871832
5.709534,0.01694635
5.763845,0.01538202
5.818156,0.01438442
5.872467,0.01385591
5.926778,0.01375776
5.967512,0.01397263
6.008245,0.01446256
6.048978,0.0152753
6.089711,0.01648541
6.110078,0.01727855
6.130445,0.01823001
6.150812,0.01937197
6.171178,0.02074377
6.191545,0.02239649
6.211911,0.02439804
6.232278,0.0268407
6.252644,0.02985084
6.270295,0.03305588
6.287946,0.03698846
6.305597,0.04188912
6.323248,0.04811143
6.332074,0.05187602
6.340899,0.05619228
6.349725,0.0611793
6.35855,0.06698987
6.367376,0.07383042
6.376201,0.08197905
6.385027,0.09182816
6.393852,0.1039328
6.402678,0.1191042
6.411504,0.1385232
6.415917,0.150337
6.42033,0.1639111
6.424743,0.1795784
6.429155,0.1977271
6.433568,0.2188239
6.437981,0.2433931
6.442394,0.2720342
6.446806,0.3054072
6.451219,0.344256
6.455632,0.3893488
6.460045,0.441485
6.464457,0.5014419
6.469888,0.587093
6.475319,0.6869039
6.48075,0.8016585
6.486181,0.9315726
6.491612,1.076112
6.497043,1.233834
6.502474,1.402266
6.507905,1.577861
6.520125,1.974003
6.526235,2.156377
6.532345,2.316256
6.537759,2.432163
6.543173,2.51842
6.548587,2.571025
6.554,2.587495
6.558735,2.571639
6.565064,2.507534
6.571392,2.398398
6.577721,2.251109
6.584049,2.074568
6.594233,1.75398
6.604416,1.423384
6.614599,1.115407
6.619691,0.9768543
6.624782,0.8507396
6.628948,0.757258
6.633114,0.6725992
6.63728,0.596589
6.641446,0.5288713
6.645612,0.468955
6.649778,0.4162568
6.653944,0.3701402
6.658109,0.3299564
6.662275,0.2950335
6.666441,0.2647541
6.670607,0.2385298
6.674772,0.2158254
6.678938,0.1961433
6.683104,0.1790569
6.68727,0.1641874
6.691435,0.1512096
6.698841,0.1319461
6.706247,0.1165148
6.713653,0.1039763
6.721059,0.09364346
6.728465,0.08501479
6.735871,0.07772305
6.743277,0.07149686
6.750683,0.06613314
6.765495,0.05741176
6.780307,0.05069684
6.795119,0.04545272
6.80993,0.04133378
6.821039,0.03884261
6.832148,0.03678964
6.843257,0.03512986
6.854366,0.03383592
6.865475,0.03289778
6.876584,0.03232477
6.887693,0.03215101
6.898802,0.03244606
6.913614,0.03379418
6.924723,0.03581746
6.930278,0.03728129
6.935832,0.03913132
6.941387,0.04144993
6.946941,0.04433385
6.952496,0.04789811
6.95805,0.05227094
6.963605,0.05759631
6.969159,0.06402245
6.974714,0.07170177
6.980268,0.08077043
6.985823,0.09134557
6.991377,0.1034956
6.996931,0.1172352
7.002485,0.1324996
7.012669,0.1638565
7.022852,0.1978487
7.033035,0.231446
7.043218,0.2608284
7.049164,0.2744572
7.055109,0.2846174
7.061055,0.2907811
7.067,0.2926135
7.07453,0.2885825
7.08206,0.277794
7.089959,0.2601944
7.097857,0.2376751
7.113653,0.185146
7.126201,0.143747
7.132475,0.1249506
7.138749,0.1079327
7.145023,0.0928711
7.151297,0.07980502
7.157571,0.06866538
7.163845,0.05930689
7.16809,0.05388946
7.172334,0.04913586
7.176578,0.04497814
7.180822,0.04135083
7.185067,0.03819069
7.189311,0.03544079
7.197799,0.03096064
7.206288,0.02754524
7.214776,0.02491409
7.223265,0.02285747
7.231753,0.02122458
7.240242,0.01990727
7.24873,0.01882946
7.265707,0.0171898
7.282684,0.01602762
7.29966,0.01519117
7.317375,0.01457052
7.33509,0.01414777
7.37052,0.01375875
7.400045,0.01381504
7.42957,0.01418536
7.459095,0.01488196
7.48862,0.01595397
7.518145,0.0174944
7.532908,0.01848571
7.54767,0.01965958
7.562433,0.02105293
7.577195,0.02271439
7.591958,0.02470952
7.60672,0.02712658
7.622221,0.03025322
7.637722,0.03418325
7.653223,0.03922189
7.660973,0.04229772
7.668723,0.04585314
7.676474,0.05000224
7.684224,0.05489549
7.691974,0.06073795
7.699724,0.0678079
7.707475,0.0764857
7.715225,0.08728317
7.722975,0.1008898
7.730725,0.1182095
7.738107,0.1392129
7.741798,0.1517433
7.745488,0.165848
7.749179,0.1817189
7.752869,0.1995414
7.75656,0.2195254
7.76025,0.241863
7.766155,0.283014
7.77206,0.3314795
7.777965,0.3878875
7.78387,0.4526391
7.789775,0.5258082
7.79568,0.6070427
7.801585,0.6954786
7.80749,0.7896793
7.814503,0.9062056
7.821515,1.023536
7.835539,1.238883
7.84115,1.309522
7.84676,1.367009
7.85237,1.409004
7.85798,1.433735
7.863,1.440348
7.86802,1.432059
7.877343,1.378521
7.886665,1.281308
7.895988,1.15127
7.90531,1.001759
7.925687,0.6697373
7.935876,0.5257068
7.94097,0.462367
7.946064,0.4052145
7.950927,0.3564288
7.95579,0.3131201
7.960653,0.2750034
7.965515,0.2417146
7.970378,0.2128159
7.975241,0.1878653
7.980104,0.1664105
7.984966,0.1480173
7.989829,0.1322673
7.994692,0.1187889
7.999555,0.1072451
8.004417,0.09734151
8.00928,0.08881703
8.014143,0.08145402
8.019006,0.07506634
8.023868,0.06949884
8.032668,0.0610984
8.041467,0.0543703
8.050266,0.04889043
8.059065,0.04435954
8.067865,0.04056388
8.076664,0.03735021
8.085463,0.03460493
8.094262,0.03224361
8.111861,0.0284313
8.129459,0.02555821
8.147057,0.02341123
8.164655,0.02187029
8.17577,0.02118595
8.186885,0.02072931
8.198,0.02052277
8.209114,0.02061301
8.220229,0.02108276
8.231344,0.02206749
8.242459,0.02377611
8.248016,0.02499209
8.253573,0.02651007
8.259131,0.02838384
8.264688,0.03067132
8.270246,0.0334354
8.275803,0.03673791
8.281361,0.04063992
8.286918,0.04519226
8.292475,0.05043446
8.298032,0.05638585
8.30359,0.06304096
8.309147,0.07035847
8.320262,0.08664016
8.342491,0.1211279
8.351132,0.1326776
8.359772,0.1416907
8.368386,0.1473262
8.377,0.1490691
8.385615,0.1467387
8.394229,0.1405503
8.401773,0.1324058
8.409317,0.1222944
8.424405,0.09877484
8.438262,0.07685635
8.445191,0.06678007
8.452119,0.05762016
8.459048,0.04949888
8.465976,0.04245987
8.472905,0.03647552
8.479833,0.03147385
8.486069,0.02772598
8.492305,0.02460387
8.498541,0.0220198
8.504776,0.01988999
8.511012,0.01813679
8.517247,0.01669289
8.523483,0.01549972
8.529718,0.01450915
8.538033,0.01343548
8.546347,0.01257867
8.554661,0.01188459
8.562975,0.01131406
8.579604,0.01043808
8.587918,0.0100972
8.596232,0.009804935
8.604547,0.009552943
8.612861,0.009334908
8.621175,0.009145846
8.629489,0.008981848
8.637803,0.008839778
8.64196,0.008776155
8.646117,0.008717102
8.650274,0.008662373
8.654431,0.008611745
8.658588,0.008565015
8.662745,0.008522
8.668981,0.008464076
8.675217,0.008413633
8.681453,0.008370236
8.687688,0.00833351
8.693924,0.008303115
8.70016,0.008278772
8.712631,0.008247303
8.727874,0.008238205
8.735496,0.008245196
8.743117,0.00825965
8.749838,0.008278502
8.756559,0.008303026
8.76328,0.0083332
8.77,0.008369022
8.776964,0.008412135
8.783928,0.008461399
8.790028,0.00850967
8.796127,0.008562784
8.808326,0.008683939
8.830057,0.008951653
8.840923,0.009112266
8.846356,0.00919974
8.851788,0.009292193
