Incident energy,Cross section
1E-05,0.02543668
1.0625E-05,0.0246772
1.125E-05,0.02398193
1.1875E-05,0.0233423
1.25E-05,0.02275126
1.375E-05,0.02169247
1.5E-05,0.02076896
1.625E-05,0.01995417
1.75E-05,0.01922832
1.875E-05,0.01857632
2E-05,0.01798645
2.1875E-05,0.01719834
2.375E-05,0.0165055
2.5625E-05,0.01589017
2.75E-05,0.0153389
2.9375E-05,0.01484129
3.125E-05,0.01438916
3.3125E-05,0.01397599
3.5E-05,0.01359648
3.875E-05,0.01292185
4.25E-05,0.01233861
4.625E-05,0.01182782
5E-05,0.01137564
5.3125E-05,0.01103599
5.625E-05,0.01072506
5.9375E-05,0.010439
6.25E-05,0.01017468
6.875E-05,0.009701181
7.5E-05,0.009288175
8.125E-05,0.008923792
8.75E-05,0.008599182
9.375E-05,0.008307601
0.0001,0.008043801
0.00010625,0.007803635
0.0001125,0.007583772
0.00011875,0.007381503
0.000125,0.0071946
0.0001375,0.006859785
0.00015,0.006567746
0.0001625,0.006310089
0.000175,0.006080556
0.0001875,0.005874377
0.0002,0.005687844
0.00021875,0.005438622
0.0002375,0.005219529
0.00025625,0.005024947
0.000275,0.00485062
0.00029375,0.004693264
0.0003125,0.004550292
0.00033125,0.004419637
0.00035,0.004299626
0.0003875,0.004086292
0.000425,0.003901856
0.0004625,0.003740334
0.0005,0.003597342
0.00053125,0.003489937
0.0005625,0.003391613
0.00059375,0.003301156
0.000625,0.003217572
0.0006875,0.003067841
0.00075,0.002937239
0.0008125,0.002822013
0.000875,0.002719365
0.0009375,0.002627161
0.001,0.002543742
0.0010625,0.002467797
0.001125,0.002398272
0.0011875,0.002334311
0.00125,0.002275209
0.001375,0.002169334
0.0015,0.002076987
0.001625,0.001995511
0.00175,0.00192293
0.001875,0.001857733
0.002,0.001798748
0.0021875,0.001719941
0.002375,0.001650661
0.0025625,0.001589132
0.00275,0.001534008
0.0029375,0.00148425
0.003125,0.001439041
0.0033125,0.001397726
0.0035,0.001359778
0.003875,0.00129232
0.00425,0.001234
0.004625,0.001182926
0.005,0.001137711
0.0053125,0.001103749
0.005625,0.001072658
0.0059375,0.001044056
0.00625,0.001017626
0.006875,0.0009702796
0.0075,0.0009289824
0.008125,0.0008925469
0.00875,0.0008600884
0.009375,0.0008309323
0.01,0.0008045539
0.010625,0.0007805385
0.01125,0.0007585531
0.011875,0.0007383269
0.0125,0.0007196371
0.01375,0.0006861558
0.015,0.0006569513
0.01625,0.0006311843
0.0175,0.0006082293
0.01875,0.0005876091
0.02,0.0005689531
0.021325,0.0005509964
0.02265,0.0005346389
0.023975,0.0005196562
0.0253,0.000505866
0.02684375,0.0004911047
0.0283875,0.0004775638
0.031475,0.0004535335
0.0345625,0.0004327981
0.03765,0.0004146674
0.0407375,0.0003986378
0.043825,0.0003843326
0.0469125,0.0003714632
0.05,0.0003598044
0.053125,0.0003490542
0.05625,0.0003392123
0.059375,0.0003301577
0.0625,0.0003217908
0.06875,0.0003068017
0.075,0.0002937273
0.08125,0.0002821918
0.0875,0.0002719155
0.09375,0.0002626847
0.1,0.0002543336
0.10625,0.0002467306
0.1125,0.0002397706
0.11875,0.0002333676
0.125,0.0002274511
0.1375,0.0002168527
0.15,0.0002076087
0.1625,0.0001994531
0.175,0.0001921879
0.1875,0.0001856622
0.2,0.0001797584
0.21875,0.000171871
0.2375,0.0001649379
0.25625,0.0001587811
0.275,0.000153266
0.29375,0.0001482886
0.3125,0.000143767
0.33125,0.0001396355
0.35,0.0001358411
0.3875,0.0001290971
0.425,0.0001232672
0.5,0.0001136406
0.625,0.0001016277
0.75,9.276219E-05
0.875,8.588141E-05
1,8.033273E-05
1.25,7.182889E-05
1.5,6.555488E-05
1.75,6.069476E-05
2,5.677223E-05
2.375,5.210052E-05
2.75,4.842196E-05
3.125,4.541071E-05
3.5,4.289759E-05
4.25,3.891447E-05
5,3.587799E-05
6.25,3.208494E-05
7.5,2.927989E-05
8.75,2.711264E-05
10,2.536507E-05
12.5,2.267586E-05
15,2.069347E-05
17.5,1.916059E-05
20,1.792247E-05
23.75,1.644462E-05
27.5,1.528359E-05
31.25,1.433338E-05
35,1.35409E-05
42.5,1.22843E-05
50,1.13247E-05
62.5,1.012735E-05
75,9.242625E-06
87.5,8.556736E-06
100,8.003849E-06
125,7.149751E-06
150,6.520077E-06
175,6.031947E-06
200,5.638597E-06
237.5,5.169624E-06
275,4.800874E-06
312.5,4.500354E-06
350,4.249746E-06
425,3.852473E-06
500,3.54885E-06
625,3.170508E-06
750,2.89142E-06
875,2.674867E-06
1000,2.500453E-06
1250,2.233191E-06
1500,2.03619E-06
1750,1.883328E-06
2000,1.760372E-06
2250,1.670468E-06
2500,1.594091E-06
2750,1.528014E-06
3000,1.470114E-06
3250,1.420655E-06
3500,1.376403E-06
4000,1.300135E-06
4500,1.240798E-06
5000,1.190206E-06
6250,1.125219E-06
7500,1.074887E-06
8750,1.034101E-06
10000,1.000192E-06
12500,1.007501E-06
15000,1.015001E-06
17500,1.0225E-06
20000,1.030081E-06
22500,1.060001E-06
25000,1.090001E-06
27500,1.120001E-06
30000,1.150001E-06
32500,1.180001E-06
35000,1.210001E-06
40000,1.270001E-06
45000,1.330001E-06
50000,1.389986E-06
55000,1.445001E-06
60000,1.500001E-06
65000,1.555001E-06
70000,1.61E-06
80000,1.719983E-06
90000,1.820039E-06
100000,1.939949E-06
110000,2.034191E-06
120000,2.128364E-06
130000,2.214084E-06
140000,2.299769E-06
160000,2.457406E-06
180000,2.603573E-06
200000,2.739988E-06
225000,2.899616E-06
250000,3.050023E-06
275000,3.193031E-06
300000,3.32999E-06
325000,3.459764E-06
350000,3.589513E-06
400000,3.829986E-06
450000,4.052165E-06
500000,4.259508E-06
550000,4.454764E-06
600000,4.639991E-06
650000,4.816181E-06
700000,4.984147E-06
750000,5.145093E-06
800000,5.299993E-06
850000,5.448557E-06
900000,5.590745E-06
950000,5.727602E-06
1000000,5.859986E-06
1200000,6.3459E-06
1500000,6.969114E-06
1750000,7.418285E-06
1950000,7.742915E-06
2000000,7.819987E-06
2250000,8.169242E-06
2450000,8.413251E-06
2500000,8.47075E-06
2750000,8.743445E-06
3000000,9E-06
3270000,9.260153E-06
3339000,9.32315E-06
3339287,9.323407E-06
3400000,9.377747E-06
3500000,9.465116E-06
3750000,9.672742E-06
4000000,9.866416E-06
4250000,1.004772E-05
4500000,1.021798E-05
5000000,1.052974E-05
5500000,1.080895E-05
5600000,1.086139E-05
6000000,1.106106E-05
6500000,1.129031E-05
7000000,1.15E-05
7250000,1.158197E-05
7500000,1.1631E-05
7850000,1.165464E-05
8000000,1.16516E-05
8500000,1.159856E-05
9000000,1.15E-05
9500000,1.136912E-05
9700000,1.130767E-05
10000000,1.120646E-05
10500000,1.101557E-05
11000000,1.08E-05
11500000,1.056187E-05
11750000,1.043832E-05
12000000,1.031485E-05
12170000,1.023191E-05
12250000,1.019333E-05
12500000,1.007531E-05
13000000,9.854773E-06
13500000,9.661204E-06
14000000,9.5E-06
14100000,9.471512E-06
14170000,9.4524E-06
14500000,9.3623E-06
15000000,9.235346E-06
15500000,9.117511E-06
16000000,9.007438E-06
16500000,8.903986E-06
17000000,8.806194E-06
17500000,8.71325E-06
18000000,8.624461E-06
18500000,8.539239E-06
19000000,8.45708E-06
19500000,8.377554E-06
20000000,8.30029E-06
21000000,8.151325E-06
22000000,8.008141E-06
23000000,7.869222E-06
24000000,7.73345E-06
25000000,7.6E-06
26000000,7.471052E-06
27000000,7.348789E-06
28000000,7.232624E-06
29000000,7.122044E-06
30000000,7.016594E-06
31000000,6.915871E-06
32000000,6.819514E-06
33000000,6.727204E-06
34000000,6.638649E-06
35000000,6.553591E-06
36000000,6.471794E-06
37000000,6.393045E-06
38000000,6.317151E-06
39000000,6.243934E-06
40000000,6.173233E-06
42000000,6.038801E-06
44000000,5.912811E-06
46000000,5.794376E-06
46300000,5.77763E-06
48000000,5.682736E-06
50000000,5.577237E-06
52000000,5.477312E-06
53000000,5.429888E-06
54000000,5.382464E-06
56000000,5.292259E-06
58000000,5.206314E-06
60000000,5.124289E-06
62000000,5.045883E-06
64000000,4.970826E-06
66000000,4.898876E-06
68000000,4.829815E-06
70000000,4.763448E-06
72000000,4.699596E-06
74000000,4.638098E-06
76000000,4.578808E-06
78000000,4.52159E-06
80000000,4.466323E-06
82000000,4.412894E-06
84000000,4.361198E-06
86000000,4.311142E-06
88000000,4.262636E-06
90000000,4.2156E-06
92000000,4.169958E-06
94000000,4.125639E-06
96000000,4.08258E-06
98000000,4.040719E-06
100000000,4E-06
102000000,4E-06
104000000,4E-06
106000000,4E-06
108000000,4E-06
110000000,4E-06
112000000,4E-06
114000000,4E-06
116000000,4E-06
118000000,4E-06
120000000,4E-06
122000000,4E-06
124000000,4E-06
126000000,4E-06
128000000,4E-06
129000000,4E-06
130000000,4E-06
132000000,4E-06
134000000,4E-06
136000000,4E-06
138000000,4E-06
140000000,4E-06
142000000,4E-06
144000000,4E-06
146000000,4E-06
148000000,4E-06
150000000,4E-06
