Incident energy,Cross section
1E-05,136.3983
1.0625E-05,132.328
1.125E-05,128.6018
1.1875E-05,125.1738
1.25E-05,122.0063
1.375E-05,116.3323
1.5E-05,111.3833
1.625E-05,107.0172
1.75E-05,103.1277
1.875E-05,99.63408
2E-05,96.47344
2.1875E-05,92.25079
2.375E-05,88.53881
2.5625E-05,85.24225
2.75E-05,82.28901
2.9375E-05,79.62338
3.125E-05,77.20153
3.3125E-05,74.98845
3.5E-05,72.95577
3.875E-05,69.34267
4.25E-05,66.21931
4.625E-05,63.48425
5E-05,61.06321
5.3125E-05,59.24487
5.625E-05,57.58038
5.9375E-05,56.04922
6.25E-05,54.6345
6.875E-05,52.10049
7.5E-05,49.8906
8.125E-05,47.94119
8.75E-05,46.20485
9.375E-05,44.64544
0.0001,43.23484
0.00010625,41.95082
0.0001125,40.77554
0.00011875,39.69449
0.000125,38.69573
0.0001375,36.907
0.00015,35.34731
0.0001625,33.9717
0.000175,32.74663
0.0001875,31.64658
0.0002,30.65166
0.00021875,29.32293
0.0002375,28.1554
0.00025625,27.119
0.000275,26.19094
0.00029375,25.35363
0.0003125,24.59326
0.00033125,23.89871
0.00035,23.26106
0.0003875,22.12838
0.000425,21.15009
0.0004625,20.29417
0.0005,19.53719
0.00053125,18.96911
0.0005625,18.44948
0.00059375,17.97182
0.000625,17.53081
0.0006875,16.74174
0.00075,16.05459
0.0008125,15.44932
0.000875,14.91099
0.0009375,14.42822
0.001,13.99215
0.0010625,13.59578
0.001125,13.2335
0.0011875,12.90075
0.00125,12.59378
0.001375,12.04516
0.0015,11.56817
0.001625,11.14867
0.00175,10.77614
0.001875,10.44258
0.002,10.14176
0.0021875,9.7414
0.002375,9.391101
0.0025625,9.081445
0.00275,8.805319
0.0029375,8.557229
0.003125,8.33286
0.0033125,8.128767
0.0035,7.942162
0.003875,7.612684
0.00425,7.330418
0.004625,7.085438
0.005,6.870495
0.0053125,6.710359
0.005625,6.564835
0.0059375,6.431928
0.00625,6.310004
0.006875,6.093902
0.0075,5.90807
0.008125,5.746397
0.00875,5.60435
0.009375,5.478483
0.01,5.366131
0.010625,5.265193
0.01125,5.173989
0.011875,5.091161
0.0125,5.015594
0.01375,4.882708
0.015,4.769603
0.01625,4.672164
0.0175,4.587349
0.01875,4.512864
0.02,4.446941
0.021325,4.38487
0.02265,4.329561
0.023975,4.279977
0.0253,4.235281
0.02684375,4.188473
0.0283875,4.146508
0.031475,4.074414
0.0345625,4.01475
0.03765,3.964591
0.0407375,3.921855
0.043825,3.885025
0.0469125,3.852967
0.05,3.824818
0.053125,3.799625
0.05625,3.777207
0.059375,3.757133
0.0625,3.739056
0.06875,3.707812
0.075,3.681762
0.08125,3.659712
0.0875,3.640808
0.09375,3.624424
0.1,3.610086
0.10625,3.597435
0.1125,3.586189
0.11875,3.576127
0.125,3.567071
0.1375,3.551428
0.15,3.538393
0.1625,3.527363
0.175,3.517909
0.1875,3.509715
0.2,3.502546
0.21875,3.493328
0.2375,3.485566
0.25625,3.478939
0.275,3.473216
0.29375,3.468224
0.3125,3.463831
0.33125,3.459935
0.35,3.456456
0.3875,3.450509
0.425,3.445612
0.5,3.438021
0.625,3.429417
0.75,3.423682
0.875,3.419585
1,3.416512
1.25,3.412211
1.5,3.409343
1.75,3.407294
2,3.405758
2.375,3.40406
2.75,3.402825
3.125,3.401887
3.5,3.401149
4.25,3.400065
5,3.399306
6.25,3.398445
7.5,3.397872
8.75,3.397462
10,3.397155
12.5,3.396725
15,3.396438
17.5,3.396233
20,3.396079
23.75,3.39591
27.5,3.395785
31.25,3.395691
35,3.395618
42.5,3.395509
50,3.395433
62.5,3.395347
75,3.39529
87.5,3.395248
100,3.395217
125,3.395171
150,3.395139
175,3.395116
200,3.395098
237.5,3.395077
275,3.39506
312.5,3.395046
350,3.395034
425,3.395015
500,3.394999
625,3.394975
750,3.394956
875,3.394937
1000,3.39492
1250,3.39489
1500,3.394862
1750,3.394835
2000,3.394808
2250,3.394708
2500,3.394608
2750,3.394507
3000,3.39439
3250,3.393155
3500,3.391905
4000,3.389407
4500,3.387204
5000,3.385007
6250,3.380502
7500,3.376002
8750,3.371501
10000,3.367008
12500,3.360751
15000,3.3545
17500,3.34825
20000,3.342004
22500,3.33675
25000,3.3315
27500,3.32625
30000,3.321002
32500,3.31625
35000,3.3115
40000,3.302002
45000,3.293499
50000,3.285002
55000,3.277499
60000,3.27
65000,3.262998
70000,3.256
80000,3.243
90000,3.231
100000,3.219999
110000,3.209318
120000,3.198638
130000,3.188318
140000,3.178
160000,3.158636
180000,3.140084
200000,3.121999
225000,3.100835
250000,3.082
275000,3.065151
300000,3.050003
325000,3.038799
350000,3.027606
400000,3.011999
450000,3.000069
500000,2.988995
550000,2.977203
600000,2.965996
650000,2.955381
700000,2.944994
750000,2.933809
800000,2.921995
850000,2.909993
900000,2.897993
950000,2.885445
1000000,2.872493
1200000,2.817781
1500000,2.729988
1750000,2.64059
1950000,2.559956
2000000,2.539992
2250000,2.441128
2450000,2.363892
2500000,2.344992
2750000,2.253762
3000000,2.159991
3270000,2.057471
3339000,2.03259
3339287,2.032483
3400000,2.009937
3500000,1.974245
3750000,1.891895
4000000,1.81749
4250000,1.752646
4500000,1.693122
5000000,1.584989
5500000,1.487528
5600000,1.469176
6000000,1.399789
6500000,1.320719
7000000,1.247988
7250000,1.213343
7500000,1.179659
7850000,1.135159
8000000,1.117288
8500000,1.064233
9000000,1.014989
9500000,0.9647619
9700000,0.9449282
10000000,0.9159888
10500000,0.871041
11000000,0.8297105
11500000,0.7919975
11750000,0.7742863
12000000,0.7572065
12170000,0.7457486
12250000,0.7403601
12500000,0.7237674
13000000,0.6931467
13500000,0.6672474
14000000,0.6435662
14100000,0.6388815
14170000,0.635644
14500000,0.6206731
15000000,0.5989348
15500000,0.5771579
16000000,0.557237
16500000,0.5399391
17000000,0.5238216
17500000,0.508782
18000000,0.4942307
18500000,0.4794774
19000000,0.4653079
19500000,0.4522771
20000000,0.4400137
21000000,0.4160124
22000000,0.3934303
23000000,0.3723207
24000000,0.3526888
25000000,0.3335865
26000000,0.3159127
27000000,0.2996064
28000000,0.2845967
29000000,0.2708089
30000000,0.2581657
31000000,0.2465953
32000000,0.2359522
33000000,0.2260744
34000000,0.2168285
35000000,0.2081049
36000000,0.2004625
37000000,0.1931496
38000000,0.1861076
39000000,0.1792892
40000000,0.1726549
42000000,0.1602692
44000000,0.1491296
46000000,0.1389937
46300000,0.1375498
48000000,0.1296743
50000000,0.1210233
52000000,0.1129642
53000000,0.1091637
54000000,0.1055122
56000000,0.09860264
58000000,0.09212536
60000000,0.08603488
62000000,0.08032726
64000000,0.07500505
66000000,0.07003791
68000000,0.06539796
70000000,0.06105974
72000000,0.05699962
74000000,0.05319605
76000000,0.04962938
78000000,0.04628135
80000000,0.04313553
82000000,0.04028305
84000000,0.03777872
86000000,0.03556128
88000000,0.03358036
90000000,0.03179334
92000000,0.03016481
94000000,0.02866481
96000000,0.02726798
98000000,0.02595276
100000000,0.024701
102000000,0.02351319
104000000,0.02237458
106000000,0.02129311
108000000,0.02027464
110000000,0.01932354
112000000,0.01844278
114000000,0.01763428
116000000,0.01689906
118000000,0.01623746
120000000,0.01564889
122000000,0.01511739
124000000,0.01462773
126000000,0.01417108
128000000,0.01373963
129000000,0.01353117
130000000,0.0133265
132000000,0.01293191
134000000,0.01255807
136000000,0.01220204
138000000,0.01186114
140000000,0.01153298
142000000,0.01121798
144000000,0.01092749
146000000,0.01066369
148000000,0.01042698
150000000,0.01021766
