Incident energy;
Incident energy;
Incident energy;?(E)
1.0E-5;1.094476
1.0625E-5;1.061796
1.125E-5;1.031878
1.1875E-5;1.004355
1.25E-5;0.9789224
1.375E-5;0.9333628
1.5E-5;0.8936239
1.625E-5;0.8585632
1.75E-5;0.8273295
1.875E-5;0.7992736
2.0E-5;0.7738908
2.1875E-5;0.7399775
2.375E-5;0.7101639
2.5625E-5;0.6836854
2.75E-5;0.6599633
2.9375E-5;0.6385502
3.125E-5;0.6190944
3.3125E-5;0.6013146
3.5E-5;0.5849834
3.875E-5;0.5559522
4.25E-5;0.5308533
4.625E-5;0.5088723
5.0E-5;0.4894129
5.3125E-5;0.4747963
5.625E-5;0.4614153
5.9375E-5;0.4491049
6.25E-5;0.4377297
6.875E-5;0.417352
7.5E-5;0.3995775
8.125E-5;0.3838952
8.75E-5;0.3699246
9.375E-5;0.3573751
1.0E-4;0.3460212
1.0625E-4;0.3356843
1.125E-4;0.326221
1.1875E-4;0.3175149
1.25E-4;0.3094701
1.375E-4;0.2950583
1.5E-4;0.2824873
1.625E-4;0.2713959
1.75E-4;0.2615148
1.875E-4;0.2526388
2.0E-4;0.2446082
2.1875E-4;0.2338783
2.375E-4;0.224445
2.5625E-4;0.2160666
2.75E-4;0.20856
2.9375E-4;0.2017838
3.125E-4;0.1956266
3.3125E-4;0.1899996
3.5E-4;0.1848307
3.875E-4;0.1756417
4.25E-4;0.1676966
4.625E-4;0.1607378
5.0E-4;0.1545767
5.3125E-4;0.1499485
5.625E-4;0.1457112
5.9375E-4;0.1418127
6.25E-4;0.13821
6.875E-4;0.1317555
7.5E-4;0.1261248
8.125E-4;0.1211561
8.75E-4;0.1167292
9.375E-4;0.112752
0.001;0.1091533
0.0010625;0.1058764
0.001125;0.1028761
0.0011875;0.1001154
0.00125;0.09756409
0.001375;0.0929925
0.0015;0.0890036
0.001625;0.08548306
0.00175;0.08234569
0.001875;0.07952653
0.002;0.0769751
0.0021875;0.07356482
0.002375;0.07056542
0.0025625;0.06790043
0.00275;0.06551189
0.0029375;0.063355
0.003125;0.06139442
0.0033125;0.05960193
0.0035;0.05795464
0.003875;0.05502385
0.00425;0.05248699
0.004625;0.05026278
0.005;0.04829192
0.0053125;0.04681057
0.005625;0.04545373
0.0059375;0.04420479
0.00625;0.04305001
0.006875;0.04097892
0.0075;0.03916904
0.008125;0.03756916
0.00875;0.03614151
0.009375;0.03485734
0.01;0.03369427
0.010625;0.0326345
0.01125;0.03166361
0.011875;0.03076969
0.0125;0.02994278
0.01375;0.02845802
0.015;0.02715812
0.01625;0.02600743
0.0175;0.02497969
0.01875;0.02405451
0.02;0.02321576
0.021325;0.02240678
0.02265;0.02166831
0.023975;0.02099057
0.0253;0.02036559
0.02684375;0.01969531
0.0283875;0.01907947
0.02993125;0.0185113
0.031475;0.01798482
0.03379063;0.01726151
0.03610625;0.01660558
0.03842188;0.01600746
0.0407375;0.01545959
0.04305313;0.01495541
0.04536875;0.01448939
0.04768438;0.01405693
0.05;0.01365417
0.053125;0.01315199
0.05625;0.01269135
0.059375;0.01226686
0.0625;0.01187421
0.065625;0.01151012
0.06875;0.01117159
0.075;0.01055745
0.08125;0.0100132
0.0875;0.00952835
0.09375;0.009093364
0.1;0.008700629
0.10625;0.008344098
0.1125;0.008018905
0.11875;0.007721081
0.125;0.007447353
0.13125;0.007194995
0.1375;0.006961719
0.14375;0.006745587
0.15;0.006544977
0.15625;0.006358725
0.1625;0.006186073
0.175;0.005874289
0.1875;0.005601637
0.2;0.005363766
0.2126437;0.005155366
0.2252873;0.004977007
0.23477;0.004861306
0.2442527;0.004760476
0.2537354;0.004674263
0.2632181;0.004602684
0.2727008;0.004546048
0.2821835;0.00450499
0.2916662;0.004480534
0.3011488;0.004474152
0.3079975;0.00448184
0.3148461;0.004500847
0.3216947;0.004532518
0.3285433;0.00457867
0.335392;0.00464134
0.3422406;0.004722919
0.3456649;0.004771724
0.3490892;0.00482647
0.3525135;0.004887678
0.3559378;0.004955938
0.361206;0.005076292
0.3664741;0.005217813
0.3691082;0.005297583
0.3717423;0.005384022
0.3743764;0.005477694
0.3770104;0.005579224
0.3796445;0.005689321
0.3822786;0.005808767
0.3849127;0.005938446
0.3875467;0.006079354
0.3901808;0.006232643
0.3928149;0.006399608
0.395449;0.00658173
0.398083;0.00678069
0.4009805;0.007021316
0.403878;0.007287608
0.4067755;0.007582995
0.409673;0.007911483
0.4125705;0.008277788
0.415468;0.008687481
0.4183655;0.009147183
0.4198143;0.009398206
0.421263;0.009664788
0.4227118;0.0099482
0.4241605;0.01024975
0.4256093;0.01057097
0.427058;0.01091344
0.4285068;0.01127898
0.4299555;0.01166953
0.4314043;0.01208728
0.432853;0.01253455
0.4343018;0.01301403
0.4357505;0.01352849
0.4371993;0.01408116
0.438648;0.0146754
0.4400968;0.01531505
0.4415455;0.0160041
0.4429942;0.01674702
0.4444429;0.01754858
0.4460234;0.01849592
0.4476038;0.01952607
0.4491843;0.02064649
0.4507647;0.02186464
0.4523452;0.02318828
0.4539256;0.02462469
0.4555061;0.02618094
0.4570865;0.02786284
0.4581402;0.02905644
0.4591938;0.03030879
0.4606692;0.0321622
0.4621446;0.03413115
0.46362;0.03621233
0.4650954;0.03839932
0.4665708;0.04068217
0.4680462;0.04304695
0.4695216;0.04547551
0.4709969;0.04794518
0.4727389;0.05087753
0.4744808;0.05377825
0.4762228;0.05658958
0.4779647;0.05924831
0.4797067;0.06168949
0.4814486;0.06384815
0.4831906;0.06566368
0.4849325;0.06708213
0.4861994;0.06783908
0.4874663;0.06835015
0.4887332;0.06860673
0.49;0.06860449
0.49125;0.06834869
0.4925;0.06784524
0.49375;0.06710244
0.495;0.06613227
0.49625;0.0649501
0.4975;0.06357411
0.5;0.06032441
0.505135;0.05225537
0.5096029;0.0447071
0.5140708;0.03752833
0.5185387;0.03120131
0.5230066;0.02590653
0.5252406;0.02364325
0.5274745;0.02161816
0.5297085;0.01981231
0.5319424;0.01820541
0.5341764;0.01677665
0.5364103;0.01550626
0.5408782;0.01336788
0.5437478;0.01222972
0.5466173;0.01124188
0.5494868;0.01038092
0.5523563;0.009627265
0.5552258;0.00896464
0.5580953;0.008379512
0.5638343;0.007398641
0.5695734;0.006615222
0.5753124;0.005980351
0.5810514;0.005458792
0.5867904;0.005024781
0.593486;0.004604119
0.6001815;0.004255397
0.606877;0.003963112
0.6135725;0.003715763
0.6202681;0.003504577
0.6269636;0.003322828
0.6336591;0.003165342
0.6403546;0.003028078
0.6537457;0.002801349
0.6671367;0.002621808
0.6805278;0.002476942
0.6939188;0.002358946
0.7130489;0.002225599
0.732179;0.002123316
0.7513091;0.002045043
0.7704391;0.001985514
0.7895692;0.001939294
0.8086993;0.001905609
0.8469594;0.001870578
0.8775676;0.001870941
0.9081757;0.001896451
0.9311318;0.001933512
0.9540879;0.001988126
0.977044;0.002063217
1.0;0.002162066
1.02108;0.002280278
1.04216;0.002433171
1.06324;0.002630334
1.084319;0.002886905
1.105399;0.003225662
1.115939;0.003435673
1.126479;0.003680206
1.137019;0.003967919
1.147559;0.004310653
1.158099;0.004723473
1.168638;0.005226119
1.178593;0.00580824
1.188547;0.006528177
1.198502;0.007433601
1.208456;0.008594692
1.213434;0.00930326
1.218411;0.01012109
1.223388;0.011073
1.228365;0.01219106
1.233342;0.01351733
1.238319;0.01510739
1.243296;0.01703527
1.248273;0.01939987
1.253251;0.02233334
1.258228;0.0260063
1.263205;0.0306358
1.265694;0.03338892
1.268182;0.03647849
1.270671;0.03994176
1.273159;0.04380904
1.278136;0.05287154
1.283113;0.06379964
1.28809;0.07651165
1.297458;0.1035609
1.303094;0.1195852
1.308729;0.1330417
1.314365;0.1419346
1.317183;0.144181
1.32;0.1448129
1.324419;0.1425236
1.328838;0.1364976
1.333257;0.1273829
1.337675;0.1160849
1.347643;0.08766333
1.352627;0.07422625
1.35761;0.0623209
1.362594;0.0522464
1.367577;0.04402989
1.372561;0.0375143
1.377544;0.03246584
1.381279;0.02949147
1.384547;0.02737202
1.387814;0.02564435
1.391082;0.02426
1.394349;0.02318165
1.397617;0.02237951
1.400884;0.02183351
1.404152;0.02153083
1.407419;0.02146684
1.411154;0.02168943
1.414888;0.0222418
1.418623;0.02315007
1.422357;0.02444922
1.426092;0.02618274
1.429826;0.02839581
1.43356;0.03113219
1.437294;0.03442408
1.441681;0.03901385
1.446068;0.04433997
1.450455;0.05027014
1.454841;0.05656498
1.459228;0.06288269
1.463615;0.06879109
1.468002;0.07381762
1.472388;0.07750979
1.476194;0.07934966
1.48;0.07976451
1.485075;0.07804473
1.49015;0.07393115
1.494934;0.06830123
1.499718;0.06154111
1.504502;0.05424896
1.509285;0.04696759
1.514069;0.04011394
1.518852;0.03396268
1.523636;0.02864151
1.528419;0.0241697
1.531495;0.02171648
1.534571;0.01956456
1.537647;0.01768444
1.540722;0.01604601
1.543798;0.01461828
1.546873;0.01337415
1.549949;0.01228739
1.553024;0.01133615
1.5561;0.01050019
1.559175;0.009763172
1.565326;0.008529792
1.571477;0.007546062
1.577628;0.006748368
1.58334;0.006134627
1.589052;0.005616335
1.594764;0.005174158
1.600475;0.004793574
1.606187;0.00446327
1.611898;0.004174671
1.61761;0.003920828
1.623321;0.003696364
1.634744;0.003318564
1.646167;0.003014613
1.65759;0.002766179
1.669013;0.002560567
1.68483;0.002330597
1.700647;0.002150107
1.716464;0.002008364
1.732281;0.001898191
1.748098;0.001815056
1.763915;0.001756549
1.779732;0.00172222
1.795548;0.001713782
1.809607;0.001731616
1.823666;0.001779417
1.834211;0.001840943
1.844756;0.001932232
1.855301;0.002064815
1.865845;0.002257555
1.871118;0.002385759
1.87639;0.002542552
1.881662;0.002735896
1.886934;0.002976447
1.892207;0.003278483
1.897479;0.003660489
1.902751;0.004146065
1.908023;0.004763525
1.912856;0.005472333
1.917689;0.006342491
1.922522;0.007393643
1.927355;0.008635396
1.932188;0.0100607
1.937021;0.01163941
1.946686;0.01499835
1.9502;0.01616851
1.95515;0.0176399
1.9601;0.01878906
1.96505;0.01950682
1.97;0.01972128
1.97495;0.01941062
1.9799;0.01860695
1.98485;0.01739014
1.9898;0.01587343
2.0;0.01234207
2.005531;0.01047602
2.011061;0.008785747
2.016591;0.0073253
2.022121;0.006109423
2.027651;0.005124791
2.033181;0.004342187
2.038711;0.003726487
2.044241;0.003243362
2.050526;0.002817443
2.05681;0.002489108
2.063094;0.002232048
2.069378;0.002027361
2.075663;0.001861611
2.081947;0.001725352
2.088231;0.001611767
2.094515;0.00151593
2.107084;0.00136381
2.119652;0.001249132
2.13222;0.001159914
2.144788;0.001088687
2.158362;0.001026505
2.171936;9.758152E-4
2.199084;8.986707E-4
2.226232;8.424211E-4
2.253379;7.993911E-4
2.280527;7.657078E-4
2.307674;7.389155E-4
2.361969;6.994405E-4
2.416265;6.708453E-4
2.47056;6.503316E-4
2.524855;6.356334E-4
2.57915;6.254196E-4
2.6435;6.180452E-4
2.70785;6.151399E-4
2.7722;6.164151E-4
2.83655;6.219067E-4
2.943275;6.414004E-4
3.05;6.772286E-4
3.103663;7.032786E-4
3.157326;7.369487E-4
3.210989;7.80695E-4
3.264652;8.378713E-4
3.318315;9.137883E-4
3.345147;9.612205E-4
3.371978;0.001016662
3.39881;0.001081567
3.425641;0.001158719
3.452473;0.001252348
3.479304;0.001367087
3.503358;0.001493072
3.527411;0.001647775
3.551464;0.001840581
3.575517;0.002084825
3.587544;0.002232208
3.59957;0.002400978
3.611597;0.002595834
3.623623;0.002822706
3.63565;0.003089269
3.647676;0.003405426
3.659703;0.00378451
3.671729;0.004244651
3.683004;0.004772362
3.694279;0.005424107
3.705554;0.006244538
3.711192;0.006738093
3.716829;0.007301966
3.722467;0.007951351
3.728104;0.008705313
3.733742;0.009589172
3.739379;0.01063534
3.745017;0.01188708
3.750654;0.01339995
3.756291;0.01524675
3.761928;0.01752007
3.767942;0.02054621
3.773955;0.02435872
3.776962;0.0266212
3.779968;0.02915516
3.782975;0.03198936
3.785981;0.03514873
3.791995;0.04254851
3.798008;0.05152112
3.804021;0.06215409
3.810034;0.07440134
3.817551;0.09161831
3.825068;0.1100793
3.832558;0.1282983
3.840047;0.1445666
3.847536;0.1570334
3.855025;0.1641277
3.86;0.1653739
3.866219;0.1628928
3.872438;0.1561704
3.879927;0.1433574
3.887416;0.126929
3.894905;0.1087292
3.902394;0.0904834
3.908018;0.07758124
3.913641;0.0658102
3.919265;0.05538947
3.924888;0.04640358
3.930512;0.03881843
3.936135;0.03252879
3.941759;0.02738014
3.947382;0.02320472
3.952303;0.02021641
3.957223;0.01774152
3.962144;0.0156878
3.967064;0.01397809
3.971985;0.01254668
3.976905;0.01134103
3.981826;0.01031781
3.986746;0.009443287
3.991667;0.008689969
3.996587;0.008036682
4.006428;0.006964958
4.016269;0.006129104
4.02611;0.005465016
4.038763;0.00479653
4.051416;0.00428301
4.064069;0.003886653
4.076721;0.003583227
4.089374;0.003357719
4.102027;0.003202546
4.11468;0.003117321
4.127332;0.003110815
4.137173;0.003174195
4.147014;0.00331899
4.151935;0.003431665
4.156855;0.003578367
4.161776;0.003766046
4.166696;0.004002781
4.171617;0.004298022
4.176537;0.004661977
4.181458;0.005105648
4.186378;0.005639517
4.191299;0.006273265
4.196219;0.007013604
4.20114;0.007863816
4.20606;0.008820949
4.213793;0.01051565
4.221525;0.01236879
4.229257;0.01424902
4.236989;0.01598305
4.242742;0.01706516
4.248495;0.01788689
4.254248;0.01838857
4.26;0.01853193
4.26505;0.01835242
4.2701;0.01789689
4.27515;0.01719063
4.2802;0.01627191
4.287868;0.01457884
4.295535;0.01268981
4.303202;0.01077897
4.310869;0.008986022
4.319084;0.007298895
4.323192;0.006563409
4.327299;0.005902849
4.331407;0.005315422
4.335514;0.004797923
4.339622;0.004345191
4.343729;0.003951669
4.347837;0.003610974
4.351944;0.003317037
4.356052;0.003063705
4.360159;0.002845509
4.364267;0.002657269
4.368374;0.002494583
4.376588;0.002230623
4.382339;0.002083882
4.388089;0.001961036
4.39959;0.001768353
4.411091;0.001625247
4.422591;0.001515446
4.434092;0.001428988
4.445593;0.001359587
4.468594;0.001256715
4.491596;0.001186829
4.514597;0.001139655
4.537599;0.001109363
4.5606;0.001092589
4.59565;0.001090324
4.614271;0.001101339
4.632891;0.001122564
4.651512;0.001156494
4.670132;0.001207353
4.688753;0.001282732
4.698063;0.001333698
4.707373;0.001397126
4.716683;0.001477308
4.725993;0.001580678
4.735303;0.001717007
4.739958;0.001801907
4.744613;0.001901109
4.752281;0.002103865
4.756115;0.002228005
4.759948;0.002370564
4.763782;0.002534437
4.767615;0.002722616
4.771449;0.002938488
4.775282;0.003185357
4.779116;0.003466781
4.782949;0.003785912
4.786783;0.004145891
4.790616;0.004548962
4.79445;0.004996974
4.798283;0.005490274
4.80595;0.006608664
4.836619;0.01187791
4.842715;0.01272954
4.84881;0.01338169
4.854905;0.01378833
4.861;0.01391982
4.866;0.01381501
4.871;0.01352407
4.876;0.01306203
4.881;0.01245184
4.891227;0.0108676
4.901454;0.009065521
4.911681;0.007302543
4.916794;0.00649572
4.921907;0.005758511
4.926323;0.005183742
4.930739;0.004668341
4.935155;0.004211701
4.939571;0.003811385
4.943987;0.003463638
4.948403;0.003163872
4.952819;0.002907069
4.957235;0.002688117
4.961651;0.002502056
4.966067;0.00234425
4.970483;0.002210494
4.974899;0.002097063
4.979315;0.002000723
4.983731;0.001918711
4.992563;0.001788734
5.0;0.001706133
5.008893;0.00163071
5.017785;0.001574087
5.026677;0.001531432
5.035569;0.001499442
5.053354;0.001458874
5.071138;0.001440609
5.094851;0.001440279
5.118563;0.001460328
5.151168;0.001514262
5.183773;0.001595217
5.216378;0.001703043
5.248982;0.001840469
5.281587;0.002012872
5.314191;0.002228643
5.346796;0.002500255
5.3794;0.002846091
5.403113;0.003159495
5.426825;0.003541528
5.450538;0.004012995
5.47425;0.00460344
5.497963;0.00535742
5.509819;0.005816072
5.521675;0.006344365
5.533532;0.006957606
5.545388;0.007675339
5.557244;0.008523388
5.5691;0.00953631
5.581698;0.01084677
5.594295;0.01247898
5.606893;0.01455649
5.613192;0.01581881
5.61949;0.0172729
5.625789;0.01896318
5.632088;0.02094655
5.638387;0.0232974
5.644685;0.02611212
5.650984;0.02951696
5.657282;0.03367127
5.663581;0.03877829
5.669879;0.04508451
5.676178;0.05288758
5.682477;0.06252482
5.688776;0.07436318
5.695074;0.0887701
5.701373;0.1060841
5.707671;0.1265452
5.71397;0.150255
5.720268;0.1770841
5.728049;0.2139232
5.735829;0.2534732
5.74361;0.2935791
5.75139;0.3314612
5.757218;0.3565394
5.763045;0.37737
5.768873;0.3928357
5.7747;0.4020607
5.78;0.4045796
5.78795;0.3976685
5.794538;0.3827432
5.801126;0.3606222
5.807714;0.332852
5.814301;0.3012456
5.825219;0.2453565
5.836136;0.1914377
5.841595;0.1669038
5.847053;0.1445378
5.852512;0.1245271
5.85797;0.1069292
5.86261;0.09381722
5.86725;0.08231194
5.87189;0.07229428
5.87653;0.06362695
5.88117;0.05616463
5.88581;0.04976197
5.89045;0.04427963
5.895089;0.03958922
5.899729;0.03557183
5.904369;0.03212514
5.909009;0.02915931
5.913648;0.02659793
5.918288;0.02437486
5.922928;0.02243616
5.932207;0.01923871
5.940395;0.01699501
5.948583;0.01515384
5.956771;0.0136212
5.964959;0.01232926
5.973147;0.01122829
5.981335;0.01028116
5.989523;0.009459657
5.99771;0.008742037
6.014086;0.007553001
6.030462;0.006614427
6.046838;0.005860947
6.063213;0.005248304
6.078497;0.004776111
6.093781;0.00438146
6.109065;0.00405096
6.124349;0.003774762
6.139633;0.003545828
6.154917;0.003359539
6.170201;0.003213631
6.185485;0.003108536
6.202953;0.003044042
6.211687;0.003038495
6.22042;0.003055301
6.230792;0.003112194
6.241163;0.003223152
6.246349;0.003305583
6.251535;0.003410828
6.256721;0.003543513
6.261906;0.00370912
6.267092;0.003914171
6.272278;0.004166025
6.277464;0.004472894
6.282649;0.004843517
6.287835;0.005287103
6.29302;0.005812263
6.298206;0.006427016
6.303391;0.007137123
6.308577;0.007946074
6.313763;0.008853163
6.324134;0.01093453
6.344877;0.0156462
6.355794;0.01788152
6.361846;0.01887248
6.367897;0.01961513
6.373949;0.02006665
6.38;0.02019975
6.38868;0.01982223
6.39736;0.0188202
6.404077;0.0176878
6.410793;0.01632509
6.424225;0.01324295
6.436418;0.01046406
6.442514;0.009197702
6.44861;0.008049758
6.454706;0.007033543
6.460802;0.006152788
6.466898;0.005403681
6.472994;0.004777066
6.477059;0.004421247
6.481123;0.004110382
6.485187;0.003840197
6.489251;0.003606582
6.493315;0.003405614
6.497379;0.003233649
6.501443;0.003087381
6.505507;0.002963868
6.513635;0.002775282
6.521763;0.002652038
6.529891;0.002584112
6.538019;0.002566862
6.544115;0.002587235
6.550211;0.002638206
6.556307;0.00272328
6.562403;0.002847491
6.568499;0.003017344
6.574595;0.003240663
6.580691;0.003526286
6.586787;0.003883544
6.593392;0.004361961
6.599996;0.004944668
6.6066;0.005637656
6.613204;0.006440945
6.619808;0.007346526
6.626412;0.00833664
6.63962;0.01044632
6.651812;0.01229067
6.658859;0.01317742
6.665906;0.0138549
6.672953;0.01427278
6.68;0.01439852
6.685015;0.01430339
6.69003;0.01405803
6.70006;0.01315907
6.710114;0.0118287
6.720167;0.01024745
6.73022;0.008599917
6.740273;0.00704094
6.749869;0.005731508
6.754667;0.005157961
6.759465;0.004641431
6.764263;0.00418143
6.769061;0.003775838
6.773859;0.003421336
6.778657;0.003113799
6.783455;0.002848652
6.788253;0.002621164
6.793051;0.002426675
6.797849;0.002260765
6.807445;0.001998812
6.81704;0.001807832
6.824352;0.001696895
6.831663;0.001608229
6.846285;0.001478439
6.860908;0.001391272
6.87553;0.001331845
6.890153;0.001291866
6.904775;0.001266607
6.93402;0.001250655
6.95504;0.001264358
6.97606;0.001300146
6.99708;0.001363365
7.0181;0.001466559
7.02861;0.001540983
7.03912;0.001638282
7.04963;0.001768004
7.06014;0.00194429
7.07065;0.002187142
7.075905;0.002341541
7.08116;0.002522934
7.086415;0.002735393
7.09167;0.002983062
7.096925;0.003269918
7.102179;0.003599407
7.108577;0.004062087
7.114974;0.004594223
7.121372;0.005194517
7.127769;0.005856503
7.153358;0.008800298
7.160669;0.009577381
7.16798;0.01024388
7.17799;0.01090262
7.188;0.01120182
7.19801;0.01111816
7.20802;0.01068716
7.217102;0.01006775
7.226183;0.009322682
7.235264;0.008548766
7.244345;0.007837749
7.250399;0.007438011
7.256453;0.007120629
7.262507;0.006902103
7.270832;0.006789786
7.279156;0.006928927
7.283319;0.007105555
7.287481;0.007361538
7.291643;0.007704101
7.295805;0.008141554
7.299968;0.008683572
7.30413;0.009340687
7.308292;0.01012502
7.312454;0.01104964
7.316616;0.01212844
7.320778;0.01337574
7.32494;0.01480579
7.329102;0.01643214
7.334778;0.01898794
7.340454;0.02195401
7.34613;0.02534073
7.351805;0.02914033
7.363156;0.03783996
7.374507;0.04750726
7.385102;0.05655627
7.395696;0.0645789
7.402022;0.06843164
7.408348;0.0713283
7.414674;0.07310922
7.421;0.07367392
7.428219;0.07279537
7.435438;0.07036151
7.4444;0.06545484
7.453361;0.05896266
