Incident energy; cross section
1E-05,34611.64
1.0625E-05,33578.36
1.125E-05,32632.43
1.1875E-05,31762.2
1.25E-05,30958.08
1.375E-05,29517.61
1.5E-05,28261.18
1.625E-05,27152.68
1.75E-05,26165.18
1.875E-05,25278.16
2E-05,24475.67
2.1875E-05,23403.49
2.375E-05,22460.95
2.5625E-05,21623.85
2.75E-05,20873.91
2.9375E-05,20196.97
3.125E-05,19581.92
3.3125E-05,19019.87
3.5E-05,18503.61
3.875E-05,17585.91
4.25E-05,16792.55
4.625E-05,16097.76
5E-05,15482.69
5.3125E-05,15020.71
5.625E-05,14597.79
5.9375E-05,14208.73
6.25E-05,13849.22
6.875E-05,13205.23
7.5E-05,12643.54
8.125E-05,12148
8.75E-05,11706.56
9.375E-05,11310.05
0.0001,10951.34
0.00010625,10624.77
0.0001125,10325.82
0.00011875,10050.81
0.000125,9796.694
0.0001375,9341.505
0.00015,8944.502
0.0001625,8594.263
0.000175,8282.277
0.0001875,8002.056
0.0002,7748.552
0.00021875,7409.885
0.0002375,7112.193
0.00025625,6847.832
0.000275,6611.018
0.00029375,6397.278
0.0003125,6203.097
0.00033125,6025.665
0.00035,5862.706
0.0003875,5573.069
0.000425,5322.721
0.0004625,5103.52
0.0005,4909.508
0.00053125,4763.809
0.0005625,4630.45
0.00059375,4507.785
0.000625,4394.459
0.0006875,4191.5
0.00075,4014.534
0.0008125,3858.456
0.000875,3719.463
0.0009375,3594.654
0.001,3481.776
0.0010625,3379.043
0.001125,3285.026
0.0011875,3198.56
0.00125,3118.688
0.001375,2975.668
0.0015,2850.993
0.001625,2741.056
0.00175,2643.17
0.001875,2555.29
0.002,2475.823
0.0021875,2369.715
0.002375,2276.506
0.0025625,2193.787
0.00275,2119.734
0.0029375,2052.938
0.003125,1992.287
0.0033125,1936.895
0.0035,1886.042
0.003875,1795.698
0.00425,1717.643
0.004625,1649.328
0.005,1588.895
0.0053125,1543.537
0.005625,1502.044
0.0059375,1463.896
0.00625,1428.664
0.006875,1365.574
0.0075,1310.549
0.008125,1261.996
0.00875,1218.741
0.009375,1179.892
0.01,1144.758
0.010625,1112.788
0.01125,1083.537
0.011875,1056.639
0.0125,1031.787
0.01375,987.2423
0.015,948.3337
0.01625,913.9732
0.0175,883.3609
0.01875,855.8773
0.02,831.0328
0.021325,807.1472
0.02265,785.423
0.023975,765.5692
0.0253,747.353
0.02684375,727.9384
0.0283875,710.2134
0.03108907,682.5559
0.03379063,658.4194
0.03649219,637.2213
0.03919375,618.4986
0.04189532,601.8714
0.04459688,587.0385
0.04729844,573.7592
0.05,561.8388
0.053125,549.5377
0.05625,538.6476
0.059375,529.0275
0.0625,520.555
0.06875,506.4531
0.075,495.5935
0.08125,487.6111
0.0875,482.1869
0.09375,479.0973
0.1,478.1977
0.10625,479.4071
0.1125,482.6971
0.11875,488.0868
0.125,495.6396
0.13125,505.4628
0.1375,517.7089
0.14375,532.5797
0.15,550.3314
0.15625,571.2784
0.1625,595.7807
0.16875,624.2745
0.171875,640.2119
0.175,657.4025
0.178125,675.9419
0.18125,695.9264
0.184375,717.4605
0.1875,740.6612
0.190625,765.6593
0.19375,792.5997
0.196875,821.6417
0.2,852.9603
0.2029732,885.0455
0.2059463,919.5424
0.2089194,956.6454
0.2118925,996.5624
0.2148657,1039.518
0.2178388,1085.746
0.2208119,1135.499
0.223785,1189.042
0.2278843,1269.582
0.2319836,1358.565
0.2360829,1456.69
0.2401822,1564.577
0.2442815,1682.683
0.2483808,1811.191
0.2504305,1879.291
0.2524801,1949.852
0.2545298,2022.752
0.2565794,2097.803
0.2586441,2175.343
0.2607087,2254.512
0.2627734,2334.932
0.264838,2416.133
0.2669027,2497.577
0.2689673,2578.628
0.271032,2658.588
0.2730966,2736.665
0.2751613,2812.021
0.2772259,2883.749
0.2813552,3012.609
0.2834199,3067.875
0.2854845,3115.841
0.2875492,3155.705
0.2896138,3186.758
0.2926169,3215.048
0.29562,3222.316
0.2976847,3214.866
0.2997493,3197.349
0.301814,3170.027
0.3038786,3133.333
0.3059433,3087.844
0.3080079,3034.274
0.3100726,2973.431
0.3121372,2906.203
0.3162665,2756.323
0.3203958,2592.127
0.3245251,2420.644
0.3286544,2247.916
0.3316575,2124.302
0.3352964,1979.06
0.3389353,1840.491
0.3425742,1709.781
0.3462131,1587.585
0.349852,1474.143
0.3534909,1369.383
0.3571298,1273.02
0.3607687,1184.625
0.3641274,1109.669
0.367486,1040.639
0.3708447,977.0933
0.3742033,918.6054
0.377562,864.7579
0.3809206,815.1626
0.3842793,769.4504
0.3876379,727.2852
0.3909966,688.3526
0.3943552,652.3698
0.3977139,619.0748
0.4010725,588.234
0.4044312,559.632
0.4077898,533.0767
0.4111485,508.3904
0.4145071,485.4136
0.4177131,464.9395
0.4209191,445.7717
0.4241251,427.8043
0.4273311,410.942
0.4305371,395.0995
0.4337431,380.1997
0.4369491,366.1727
0.440155,352.9554
0.443361,340.4884
0.446567,328.7184
0.449773,317.5959
0.452979,307.0754
0.456185,297.1153
0.459391,287.6773
0.462597,278.7262
0.4658029,270.2301
0.4700776,259.5583
0.4743522,249.5807
0.4786269,240.2415
0.4829015,231.4921
0.4871762,223.2874
0.4914508,215.585
0.5,201.5176
0.515625,179.5473
0.53125,161.411
0.546875,146.3275
0.5625,133.6476
0.578125,122.8766
0.59375,113.6403
0.609375,105.6521
0.625,98.6894
0.640625,92.57746
0.65625,87.17761
0.671875,82.38428
0.6875,78.13405
0.71875,70.83785
0.75,64.80128
0.78125,59.76815
0.8125,55.51403
0.84375,51.87492
0.875,48.72876
0.90625,45.98305
0.9375,43.56656
0.96875,41.4237
1,39.51046
1.03125,37.79188
1.0625,36.25051
1.125,33.5628
1.1875,31.29501
1.25,29.36256
1.3125,27.69391
1.375,26.23652
1.4375,24.95093
1.5,23.80698
1.5625,22.78127
1.625,21.85974
1.75,20.25449
1.875,18.89939
2,17.74266
2.1875,16.28573
2.375,15.07966
2.5625,14.0648
2.75,13.19863
2.9375,12.45122
3.125,11.80083
3.3125,11.23131
3.5,10.73192
3.875,9.901803
4.25,9.256732
4.625,8.768907
5,8.424414
5.260035,8.273602
5.520069,8.200777
5.682591,8.204219
5.845112,8.252608
6.007634,8.356398
6.170155,8.530999
6.251416,8.64547
6.332677,8.792482
6.413938,8.972772
6.495198,9.192887
6.576459,9.461984
6.65772,9.792338
6.738981,10.20077
6.820241,10.71073
6.882541,11.18795
6.944841,11.75895
7.007141,12.46465
7.069441,13.3422
7.131741,14.45058
7.162891,15.11804
7.194041,15.88056
7.225191,16.75709
7.256341,17.77066
7.287491,18.9515
7.318641,20.34389
7.348437,21.92997
7.378232,23.8341
7.408028,26.14863
7.437823,29.00449
7.452721,30.69202
7.467619,32.5927
7.482517,34.7452
7.497414,37.19732
7.512312,40.00989
7.52721,43.2604
7.542108,47.05022
7.557005,51.51339
7.571903,56.83095
7.586801,63.2487
7.601699,71.10863
7.616597,80.89648
7.624046,86.72219
7.631495,93.31671
7.638944,100.8208
7.646393,109.4053
7.653842,119.2768
7.661291,130.6837
7.66874,143.9202
7.676188,159.3273
7.685669,182.7035
7.695149,211.1262
7.70463,245.5352
7.71411,286.7838
7.720882,320.7973
7.727654,358.7167
7.734426,400.4637
7.741197,445.7381
7.747969,494.0051
7.75474,544.4205
7.761512,595.8798
7.768283,646.9785
7.778847,722.1298
7.789411,785.7926
7.799975,831.4869
7.810538,854.0692
7.8158,855.7172
7.826325,839.4671
7.83685,798.8107
7.849435,724.2505
7.862019,631.4586
7.874604,531.8667
7.887188,435.4368
7.897125,366.181
7.907061,305.1603
7.916998,253.0539
7.926934,209.6575
7.936871,174.1654
7.946807,145.4957
7.956744,122.4822
7.96668,104.0391
7.974525,92.07605
7.98237,81.97337
7.990215,73.4016
7.998059,66.08989
8.005904,59.81477
8.013748,54.39824
8.021593,49.69374
8.029437,45.58512
8.037282,41.97624
8.045126,38.79073
8.060815,33.44668
8.076504,29.16994
8.092193,25.69643
8.106837,23.01367
8.12148,20.75718
8.136123,18.84333
8.150766,17.20811
8.16541,15.80167
8.180053,14.58503
8.209339,12.60185
8.238626,11.07239
8.267912,9.87108
8.297199,8.912825
8.326485,8.139992
8.359956,7.43148
8.393426,6.866571
8.426897,6.412301
8.460367,6.044747
8.493838,5.746535
8.527308,5.504306
8.594248,5.1428
8.661189,4.89906
8.728129,4.741616
8.79507,4.647992
8.86201,4.603327
8.945686,4.602094
9.029362,4.652495
9.113038,4.75264
9.196713,4.890731
9.297124,5.119313
9.397535,5.425771
9.497946,5.826007
9.598357,6.3387
9.698768,7.016653
9.799179,7.930806
9.849385,8.503864
9.89959,9.17642
9.949795,9.969949
10,10.91152
10.05194,12.08505
10.10388,13.52037
10.15582,15.29255
10.20775,17.50204
10.25969,20.29079
10.28566,21.96931
10.31163,23.88689
10.3376,26.08891
10.36357,28.62971
10.38954,31.57712
10.4155,35.01604
10.44634,39.89611
10.47718,45.87479
10.50802,53.28969
10.53886,62.61069
10.55428,68.18406
10.5697,74.50475
10.58512,81.70553
10.60054,89.95
10.61596,99.44078
10.63138,110.4294
10.6468,123.2284
10.66221,138.2151
10.67844,156.9033
10.69467,179.2589
10.7109,206.148
10.72713,238.6249
10.74088,271.4301
10.75462,309.9462
10.76836,355.06
10.7821,407.5709
10.79585,468.1171
10.80959,536.7973
10.82333,613.2001
10.83707,695.9957
10.84844,767.676
10.85981,840.1844
10.88254,977.6096
10.89391,1036.872
10.90527,1085.934
10.91664,1122.378
10.928,1144.261
10.94013,1150.413
10.95832,1126.448
10.9765,1067.181
10.9941,984.7114
11.01169,887.8305
11.02928,786.2199
11.04687,687.6483
11.06446,597.2463
11.08205,517.6119
11.09964,449.3838
11.11723,391.9508
11.12959,357.3925
11.14194,327.0724
11.15429,300.4592
11.16664,277.0806
11.17899,256.5078
11.19134,238.3608
11.21604,208.0652
11.24075,184.0571
11.26545,164.811
11.29015,149.2088
11.31485,136.4541
11.34779,122.892
11.38073,112.3919
11.41367,104.2844
11.4466,98.12158
11.47954,93.61108
11.51248,90.59582
11.54542,89.03569
11.56189,88.82438
11.57835,89.02489
11.59976,89.97368
11.62117,91.8394
11.63188,93.18625
11.64258,94.85998
11.65329,96.91751
11.66399,99.42461
11.6747,102.4772
11.6854,106.1896
11.69611,110.7277
11.70681,116.2924
11.71752,123.1675
11.72822,131.6891
11.73358,136.7108
11.73893,142.3047
11.74428,148.5458
11.74963,155.5031
11.75705,166.4715
11.76446,179.1254
11.77187,193.6525
11.77928,210.1946
11.78669,228.8397
11.7941,249.5969
11.80151,272.3711
11.80892,296.9382
11.81428,315.622
11.81963,334.8239
11.83033,373.9028
11.84104,411.8865
11.85174,445.8569
11.86052,468.6288
11.86929,485.0782
11.87806,493.9147
11.88683,494.2301
11.89428,487.5016
11.898,481.7502
11.90918,455.4188
11.91729,428.7608
11.9254,397.0355
11.93351,361.6305
11.94162,324.0316
11.95313,269.7488
11.96464,217.6804
11.97615,170.6135
11.98191,149.5086
11.98766,130.236
11.99399,111.1483
12.00032,94.27827
12.00665,79.54991
12.01298,66.83839
12.01931,55.98477
12.02564,46.80951
12.03197,39.12408
12.03829,32.74956
12.04405,27.91814
12.0498,23.89476
12.05556,20.54946
12.06131,17.78992
12.06707,15.5145
12.07282,13.65115
12.07858,12.12448
12.08433,10.88137
12.09009,9.868163
12.09584,9.047316
12.1016,8.381844
12.10735,7.845993
12.11311,7.414818
12.11886,7.070983
12.13037,6.583941
12.13786,6.37656
12.14534,6.233733
12.1603,6.088818
12.17526,6.071699
12.19022,6.135031
12.20518,6.248994
12.22014,6.394336
12.2351,6.558376
12.25006,6.732649
12.27998,7.090998
12.3099,7.442953
12.33982,7.777287
12.36974,8.090046
12.40657,8.444848
12.4434,8.768651
12.48023,9.065322
12.51706,9.339099
12.55389,9.59406
12.59072,9.834088
12.66437,10.28398
12.73803,10.71298
12.81168,11.13882
12.88534,11.57746
12.95899,12.04321
13.03265,12.55028
13.1063,13.11332
13.19377,13.87804
13.28124,14.77979
13.36871,15.86405
13.45617,17.19444
13.54364,18.86537
13.63111,21.01833
13.67485,22.33791
13.71858,23.87445
13.76231,25.69532
13.80604,27.88612
13.84287,30.10249
13.8797,32.76257
13.91653,36.00863
13.95336,40.05216
13.99019,45.22869
14.00861,48.40521
14.02702,52.10049
14.04544,56.45733
14.06385,61.66207
14.08226,67.98622
14.10067,75.81633
14.11679,84.3416
14.1329,94.95198
14.14096,101.2478
14.14901,108.3205
14.15707,116.2934
14.16512,125.2571
14.17318,135.3439
14.18124,146.6468
14.1893,159.253
14.19735,173.2042
14.20541,188.555
14.21346,205.2328
14.22957,242.1576
14.23878,264.8173
14.2473,286.2073
14.25581,307.406
14.27284,346.6028
14.28987,376.4689
14.29839,386.0801
14.3069,391.3354
14.31519,391.9001
14.32348,387.7887
14.329,382.4622
14.33729,370.7241
14.34558,354.8394
14.35879,322.367
14.37199,283.7175
14.38519,242.1666
14.39839,200.9253
14.40993,167.2705
14.42147,137.2879
14.43301,111.8602
14.43878,101.0127
14.44455,91.44919
14.45085,82.48377
14.45714,75.06601
14.46239,70.03811
14.46764,66.05831
14.47289,63.11782
14.47813,61.21393
14.48312,60.35833
14.4881,60.44184
14.49309,61.47793
14.49807,63.48349
14.50306,66.49616
14.50804,70.54215
14.51302,75.6734
14.518,81.94506
14.52299,89.43604
14.52797,98.18528
14.53296,108.3017
14.53794,119.8207
14.54293,132.8648
14.54791,147.4545
14.55289,163.6808
14.55787,181.5996
14.56365,204.5736
14.56942,229.8711
14.57519,257.5212
14.58096,287.4649
14.58673,319.5847
14.5925,353.6985
14.60404,426.8316
14.61405,493.6715
14.62406,561.0581
14.63407,626.0187
14.64407,685.2796
14.65256,728.7984
14.66104,764.1694
14.66952,790.0075
14.678,805.2958
14.68705,809.4045
14.70096,791.4966
14.71487,747.3772
14.72878,683.2178
14.74269,606.7787
14.75931,510.2439
14.77592,418.468
14.78423,376.7101
14.79253,338.5105
14.80084,304.0286
14.80914,273.3986
14.81627,250.0495
14.82339,229.3255
14.83051,211.0145
14.83763,194.9131
14.84475,180.8063
14.85187,168.4784
14.85899,157.7214
14.86611,148.3402
14.87323,140.1566
14.88035,133.0108
14.88747,126.7616
14.89459,121.286
14.90883,112.2461
14.92307,105.2146
14.93806,99.44919
14.95304,94.9699
14.96803,91.48601
14.98301,88.79874
14.998,86.75622
15.01298,85.25106
15.02796,84.19817
15.04294,83.53291
15.06944,83.15484
15.09594,83.62407
15.12244,84.7883
15.14893,86.52765
15.17543,88.74046
15.20192,91.328
15.25491,97.23882
15.30791,103.4125
15.3609,108.8457
15.41389,112.45
15.46688,113.2819
15.51675,111.0696
15.55658,107.2444
15.59641,101.8572
15.67607,88.08351
15.75573,73.22446
15.83539,59.6329
15.87522,53.67374
15.91505,48.32742
15.95488,43.57991
15.99471,39.39321
16.03454,35.71701
16.07437,32.49684
16.1142,29.67923
16.15403,27.21435
16.19629,24.93478
16.23854,22.9552
16.28079,21.23448
16.32304,19.7381
16.40755,17.30599
16.49205,15.47842
16.57656,14.13084
16.66107,13.18312
16.74558,12.591
16.78783,12.42377
16.83008,12.34458
16.8829,12.37737
16.93572,12.5732
16.98854,12.95971
17.04135,13.58093
17.06776,14.00147
17.09417,14.51227
17.12058,15.13025
17.14698,15.87644
17.17339,16.77887
17.1998,17.8735
17.22621,19.20916
17.25261,20.85243
17.27726,22.74842
17.30191,25.10774
17.32656,28.0964
17.33888,29.90091
17.3512,31.96856
17.36353,34.35837
17.37585,37.14051
17.38818,40.41695
17.4005,44.31149
17.41283,49.00255
17.42515,54.71116
17.43747,61.74203
17.44979,70.48597
17.46036,79.72564
17.47092,90.95329
17.48149,104.6223
17.49205,121.1809
17.50262,141.1518
17.51318,164.9634
17.51846,178.4413
17.52374,193.0178
17.52902,208.7167
17.5343,225.5472
17.54091,248.1986
17.54751,272.5123
17.55411,298.4076
17.56071,325.7105
17.56732,354.2271
17.57392,383.5674
17.58712,443.3184
17.60535,522.2445
17.62358,586.8335
17.63194,608.6445
17.64029,624.2979
17.64865,633.2036
17.657,634.9672
17.67133,621.2625
17.68518,589.2941
17.69903,542.1735
17.71288,484.4207
17.72672,421.1282
17.74585,333.2314
17.75542,291.9025
17.76498,253.5766
17.77455,218.7165
17.78411,187.673
17.79368,160.4335
17.80324,136.9293
17.81112,120.1651
17.819,105.5633
17.82688,92.91882
17.83476,82.01838
17.84264,72.65133
17.85052,64.61705
17.8584,57.73009
17.86627,51.82995
17.87415,46.75367
17.88203,42.38039
17.88991,38.59945
17.89778,35.3208
17.90566,32.45721
17.91354,29.94713
17.92929,25.7798
17.94392,22.69155
17.95855,20.16491
17.97318,18.06784
17.98781,16.30539
18.00244,14.80808
18.01707,13.52408
18.0317,12.41403
18.04633,11.44743
18.07559,9.853598
18.10485,8.602434
18.13411,7.601245
18.16337,6.786827
18.19263,6.115122
18.22189,5.554693
18.25115,5.082467
18.28041,4.681049
18.30967,4.33707
18.33893,4.040138
18.39745,3.556586
18.45597,3.183527
18.51449,2.889805
18.57301,2.653308
18.63153,2.459637
18.69906,2.277284
18.76658,2.128951
18.83411,2.00673
18.90163,1.904946
18.96916,1.819372
19.03668,1.746962
19.17172,1.63359
19.30677,1.549163
19.44181,1.486414
19.57686,1.441006
19.7119,1.409949
19.85595,1.390846
20,1.385637
20.14695,1.39545
20.29389,1.422888
20.44084,1.472236
20.58778,1.550729
20.73473,1.669946
20.8082,1.74919
20.88167,1.846029
20.95514,1.966708
21.02861,2.116956
21.10208,2.304679
21.17555,2.541318
21.23606,2.784086
21.29657,3.082681
21.35708,3.453047
21.41758,3.919103
21.47809,4.516796
21.50834,4.879906
21.53859,5.296393
21.56885,5.776695
21.5991,6.333411
21.62935,6.983065
21.6596,7.746588
21.69418,8.793936
21.72875,10.07938
21.76333,11.67925
21.7979,13.70176
21.81519,14.92012
21.83248,16.31143
21.84977,17.9103
21.86705,19.75939
21.88434,21.91696
21.90163,24.45501
21.91892,27.47
21.9362,31.08923
21.95565,36.11036
21.96538,39.10103
21.9751,42.48178
21.98483,46.32984
21.99455,50.72179
22.00428,55.76813
22.014,61.57925
22.02373,68.31006
22.03345,76.1135
22.04318,85.19801
22.0529,95.76224
22.06263,108.0687
22.07235,122.351
22.08207,138.8895
22.09179,157.9511
22.10044,177.2382
22.10908,198.8442
22.11773,222.9309
22.12637,249.5011
22.13502,278.6062
22.14366,310.085
22.15231,343.8182
22.16095,379.4277
22.16959,416.5367
22.17823,454.6155
22.18937,504.0983
22.20051,552.5267
22.22278,639.0016
22.23359,672.5355
22.24439,698.4942
22.2552,715.7588
22.266,723.518
22.27598,721.964
22.28595,712.1438
22.30354,676.2009
22.32112,620.6968
22.3387,552.0639
22.35628,477.3321
22.381,373.949
22.39336,326.6058
22.40572,283.5175
22.41808,245.1581
22.43044,211.6411
22.4428,182.8034
22.45515,158.3111
22.46519,141.2671
22.47523,126.5028
22.48527,113.7447
22.49531,102.7308
22.50535,93.21812
22.51539,84.98812
22.52543,77.84824
22.53547,71.63181
22.54551,66.1965
22.55555,61.42209
22.57563,53.46938
22.59571,47.15237
22.61579,42.041
22.63433,38.13176
22.65287,34.8267
22.67141,32.00239
22.68994,29.56765
22.70848,27.44942
22.72702,25.59452
22.74556,23.95999
22.76409,22.51229
22.80117,20.06797
22.83824,18.09597
22.87531,16.48014
22.91238,15.13823
22.94637,14.0976
22.98035,13.20413
23.01434,12.43216
23.04832,11.76267
23.08231,11.17983
23.11629,10.67157
23.18425,9.840419
23.25222,9.211259
23.32019,8.74917
23.38816,8.436918
23.45612,8.275039
23.50555,8.264487
23.55499,8.369259
23.58434,8.504665
23.61369,8.716406
23.64304,9.036486
23.65772,9.253127
23.67239,9.519829
23.68707,9.849773
23.70174,10.25848
23.71642,10.76562
23.73109,11.39194
23.73843,11.75709
23.74577,12.16027
23.75311,12.60378
23.76044,13.08875
23.76778,13.61767
23.77512,14.19025
23.78979,15.46117
23.79983,16.41853
23.80987,17.43167
23.82995,19.5379
23.85003,21.54384
23.87011,23.13863
23.88865,23.96396
23.90683,23.96546
23.91592,23.63198
23.925,23.07418
23.933,22.40367
23.945,21.11075
23.957,19.52623
23.97096,17.41656
23.98491,15.15111
24.00371,12.08783
24.0225,9.272776
24.03245,7.952675
24.0424,6.774563
24.05235,5.746557
24.0623,4.869331
24.0717,4.174223
24.0811,3.60034
24.0905,3.136601
24.09989,2.770743
24.10929,2.4888
24.11869,2.278177
24.12809,2.126565
24.13748,2.022863
24.14688,1.956996
24.15628,1.920652
24.16568,1.906777
24.17507,1.909607
24.18447,1.924559
24.19387,1.948048
24.21266,2.010264
24.22704,2.064544
24.24141,2.12032
24.27015,2.22888
24.2989,2.328408
24.32764,2.41756
24.35639,2.49717
24.38513,2.568485
24.44262,2.691578
24.50011,2.795816
24.5576,2.887593
24.67257,3.051236
24.76986,3.184553
24.86715,3.32575
24.96444,3.485285
25.06173,3.674288
25.15902,3.906485
25.25631,4.200714
25.30496,4.379327
25.3536,4.584887
25.40225,4.823358
25.45089,5.102083
25.50175,5.447609
25.55261,5.864887
25.60347,6.377726
25.65432,7.019456
25.67975,7.403199
25.70518,7.839308
25.73061,8.338217
25.75603,8.913064
25.78146,9.581774
25.80689,10.36743
25.83232,11.30172
25.85774,12.42834
25.88207,13.74532
25.90639,15.37775
25.91855,16.34902
25.93071,17.45074
25.94287,18.71005
25.95503,20.16162
25.9672,21.85134
25.97936,23.83338
25.99152,26.18164
26.00368,28.98815
26.01584,32.36792
26.028,36.46229
26.04016,41.44093
26.05232,47.50159
26.06559,55.61184
26.07886,65.58465
26.09213,77.72768
26.10539,92.30014
26.11866,109.5125
26.13192,129.3904
26.14519,151.8232
26.15845,176.3947
26.1673,193.6812
26.17614,211.3583
26.18941,237.9629
26.20267,263.5168
26.21594,286.688
26.2292,306.0592
26.23915,317.3466
26.2491,325.3533
26.25905,329.7538
26.269,330.3582
26.28393,324.0959
26.29577,313.3178
26.3076,298.0058
26.31944,278.9174
26.33127,257.017
26.35187,215.1102
26.37246,172.7108
26.39306,133.7494
26.40336,116.3844
26.41365,100.6779
26.42863,80.85422
26.43612,72.27533
26.44361,64.545
26.4511,57.61872
26.45859,51.44422
26.46608,45.96426
26.47356,41.12517
26.48105,36.85388
26.48854,33.09831
26.49603,29.80193
26.50351,26.91527
26.511,24.38155
26.51849,22.16014
26.52598,20.21072
26.53346,18.49954
26.54563,16.1387
26.5578,14.20479
26.56997,12.60732
26.58214,11.27553
26.59431,10.15458
26.60648,9.202144
