Incident energy,Cross section
1E-05,43.5797
1.0625E-05,42.35722
1.125E-05,41.24021
1.1875E-05,40.21454
1.25E-05,39.2686
1.375E-05,37.57881
1.5E-05,36.11046
1.625E-05,34.81987
1.75E-05,33.67446
1.875E-05,32.64944
2E-05,31.72555
2.1875E-05,30.49685
2.375E-05,29.42269
2.5625E-05,28.47396
2.75E-05,27.62866
2.9375E-05,26.86982
3.125E-05,26.1841
3.3125E-05,25.56086
3.5E-05,24.99148
3.875E-05,23.98733
4.25E-05,23.12843
4.625E-05,22.38414
5E-05,21.73209
5.3125E-05,21.24697
5.625E-05,20.80665
5.9375E-05,20.405
6.25E-05,20.03698
6.875E-05,19.3858
7.5E-05,18.82709
8.125E-05,18.34209
8.75E-05,17.91687
9.375E-05,17.54086
0.0001,17.20589
0.00010625,16.90553
0.0001125,16.63464
0.00011875,16.38907
0.000125,16.16541
0.0001375,15.77308
0.00015,15.44019
0.0001625,15.15424
0.000175,14.90601
0.0001875,14.68856
0.0002,14.49655
0.00021875,14.24734
0.0002375,14.03552
0.00025625,13.85335
0.000275,13.69507
0.00029375,13.55633
0.0003125,13.43376
0.00033125,13.32471
0.00035,13.22709
0.0003875,13.05968
0.000425,12.92137
0.0004625,12.80523
0.0005,12.70633
0.00053125,12.63448
0.0005625,12.57055
0.00059375,12.5133
0.000625,12.46172
0.0006875,12.37252
0.00075,12.29806
0.0008125,12.23494
0.000875,12.18073
0.0009375,12.13366
0.001,12.09238
0.0010625,12.05588
0.001125,12.02335
0.0011875,11.99418
0.00125,11.96785
0.001375,11.92219
0.0015,11.8839
0.001625,11.85129
0.00175,11.82314
0.001875,11.79856
0.002,11.77688
0.0021875,11.74871
0.002375,11.72466
0.0025625,11.70382
0.00275,11.68555
0.0029375,11.66935
0.003125,11.65485
0.0033125,11.64175
0.0035,11.62985
0.0036875,11.61894
0.003875,11.6089
0.00425,11.59093
0.004625,11.57523
0.005,11.56128
0.0053125,11.55072
0.005625,11.54098
0.0059375,11.53191
0.00625,11.52342
0.006875,11.50787
0.0075,11.49382
0.008125,11.48094
0.00875,11.46899
0.009375,11.45778
0.01,11.44719
0.010625,11.43711
0.01125,11.42745
0.011875,11.41816
0.0125,11.40919
0.013125,11.40049
0.01375,11.39202
0.015,11.37572
0.01625,11.36009
0.0175,11.34501
0.01875,11.3304
0.02,11.31617
0.021325,11.30146
0.02265,11.28708
0.023975,11.27298
0.0253,11.25914
0.02665079,11.24527
0.02800157,11.23161
0.02935235,11.21814
0.03070313,11.20485
0.03340469,11.17874
0.03610625,11.1532
0.03880782,11.12814
0.04150938,11.1035
0.04421094,11.07922
0.0469125,11.05528
0.05,11.02827
0.053125,11.00127
0.05625,10.97457
0.059375,10.94813
0.0625,10.92192
0.065625,10.89591
0.06875,10.87007
0.071875,10.84438
0.075,10.81881
0.078125,10.79336
0.08125,10.768
0.084375,10.74273
0.0875,10.71753
0.090625,10.69241
0.09375,10.66735
0.1,10.61747
0.1034509,10.59008
0.1069018,10.56283
0.1103527,10.53576
0.1138035,10.50891
0.1172544,10.48234
0.1207052,10.45609
0.1241561,10.43025
0.1276069,10.40487
0.1345087,10.35574
0.1414104,10.30893
0.1483121,10.26427
0.1552138,10.22124
0.1590717,10.1978
0.1629295,10.17486
0.1667873,10.1527
0.1706451,10.13171
0.1745029,10.11249
0.1783607,10.09579
0.1822185,10.08251
0.1860763,10.0737
0.1895573,10.0706
0.1930382,10.07315
0.1965191,10.08249
0.2,10.0999
0.2027194,10.12002
0.2054388,10.14667
0.2108775,10.2229
0.2163163,10.33528
0.221755,10.49013
0.2271938,10.69414
0.2326325,10.95337
0.2380713,11.27029
0.2407907,11.44969
0.24351,11.64193
0.246075,11.83383
0.24864,12.03449
0.251205,12.24211
0.25377,12.4546
0.25719,12.74144
0.26061,13.02684
0.2629613,13.21904
0.2653125,13.40571
0.2676638,13.58504
0.270015,13.75536
0.2723663,13.91523
0.2747175,14.06342
0.2770688,14.19902
0.27942,14.32134
0.2841225,14.52494
0.288825,14.67416
0.2935275,14.77233
0.29823,14.82504
0.30165,14.83869
0.30507,14.83466
0.3092581,14.8096
0.3134461,14.76672
0.3155402,14.7399
0.3176342,14.71014
0.3197282,14.67785
0.3218222,14.64342
0.3239163,14.6072
0.3260103,14.56951
0.3281043,14.53064
0.3301983,14.49084
0.3322923,14.45034
0.3343863,14.40934
0.3364803,14.36802
0.3385743,14.32652
0.3424684,14.24937
0.3463624,14.17281
0.3502565,14.09738
0.3541505,14.02347
0.3580446,13.95137
0.3619386,13.88128
0.3658326,13.81331
0.3697266,13.74755
0.3736207,13.684
0.3775147,13.62269
0.3814088,13.56357
0.3853028,13.50661
0.3891969,13.45175
0.3930909,13.39892
0.396985,13.34807
0.400879,13.29911
0.4042421,13.2583
0.4076051,13.21879
0.4109682,13.18054
0.4143312,13.1435
0.4176943,13.10761
0.4210573,13.07282
0.4244203,13.0391
0.4277833,13.00641
0.4311464,12.97469
0.4345094,12.94392
0.4378724,12.91406
0.4412354,12.88506
0.4479615,12.82955
0.4546875,12.77711
0.4603516,12.73517
0.4660157,12.6951
0.4716798,12.6568
0.4773438,12.62016
0.4830079,12.58509
0.4886719,12.55149
0.5,12.48831
0.515625,12.4087
0.53125,12.3366
0.546875,12.27106
0.5625,12.21116
0.578125,12.15614
0.59375,12.10535
0.609375,12.05828
0.625,12.01469
0.65625,11.93547
0.6875,11.865
0.71875,11.80183
0.75,11.74461
0.78125,11.69228
0.8125,11.64404
0.84375,11.59923
0.875,11.55751
0.9375,11.48099
1,11.41178
1.049697,11.36106
1.099394,11.31325
1.149091,11.26781
1.198788,11.22455
1.265051,11.1698
1.331313,11.11793
1.397576,11.06875
1.463838,11.02229
1.529204,10.97926
1.594569,10.93881
1.627252,10.91901
1.659935,10.89873
1.7253,10.85301
1.7558,10.82799
1.7863,10.80084
1.8168,10.77188
1.8473,10.74222
1.885475,10.70556
1.92365,10.67011
2,10.60275
2.070438,10.54354
2.140875,10.48561
2.28175,10.36957
2.43143,10.24202
2.58111,10.10694
2.73079,9.961424
2.880469,9.802194
3.030149,9.624887
3.179829,9.425737
3.254669,9.313633
3.329509,9.191657
3.404349,9.057718
3.479188,8.909031
3.534218,8.788118
3.589247,8.655354
3.644277,8.509354
3.699306,8.344501
3.754336,8.156836
3.781851,8.052588
3.809365,7.940061
3.83688,7.817994
3.864394,7.684965
3.891909,7.539312
3.919423,7.378603
3.942536,7.229518
3.965648,7.065295
3.98876,6.883449
4.011872,6.680911
4.023429,6.570738
4.034985,6.453968
4.046541,6.330052
4.058097,6.198442
4.069653,6.058607
4.081209,5.91008
4.092765,5.752563
4.104321,5.586122
4.115878,5.411554
4.127434,5.23115
4.13899,5.049924
4.144768,4.961907
4.150546,4.878169
4.156325,4.801565
4.162103,4.736077
4.167881,4.687091
4.173659,4.661885
4.179437,4.670109
4.185215,4.724313
4.190993,4.840425
4.196771,5.038093
4.201173,5.257754
4.206676,5.635843
4.212179,6.152044
4.217682,6.831854
4.223185,7.699641
4.228688,8.776072
4.234191,10.07506
4.239694,11.60054
4.245196,13.34307
4.254288,16.62669
4.26338,20.22421
4.272472,23.82617
4.281563,27.07109
4.2855,28.27798
4.291425,29.79789
4.29735,30.91306
4.304071,31.65307
4.310791,31.84018
4.317512,31.52232
4.324232,30.78096
4.337673,28.43736
4.344393,27.04173
4.351113,25.61473
4.359617,23.86327
4.363869,23.03579
4.36812,22.24997
4.372372,21.50932
4.376623,20.816
4.380875,20.16996
4.385126,19.57054
4.389378,19.01562
4.393629,18.50309
4.402132,17.59364
4.410635,16.81948
4.419138,16.15915
4.426224,15.68239
4.43331,15.26297
4.440396,14.89375
4.447482,14.56905
4.454568,14.28454
4.461654,14.037
4.475825,13.64482
4.484269,13.47375
4.492713,13.34922
4.5096,13.2443
4.52625,13.33925
4.5429,13.63544
4.55955,14.10998
4.567875,14.39539
4.5762,14.6971
4.5873,15.09916
4.5984,15.46668
4.606725,15.69834
4.61505,15.87871
4.6317,16.0564
4.649127,15.97492
4.666553,15.66984
4.675266,15.45985
4.683979,15.22647
4.692692,14.97966
4.701405,14.72773
4.707415,14.55445
4.713425,14.3835
4.719435,14.21615
4.725445,14.05333
4.731455,13.8957
4.737465,13.74369
4.743475,13.59753
4.749484,13.45734
4.761504,13.19454
4.773524,12.95426
4.785544,12.73472
4.797563,12.53389
4.810216,12.34039
4.822868,12.16309
4.848173,11.84936
4.873478,11.58003
4.898782,11.34586
4.924087,11.13965
4.949391,10.95555
4.974696,10.7893
5,10.63812
5.047641,10.38643
5.095282,10.16866
5.142923,9.978573
5.190563,9.813444
5.279526,9.55764
5.368488,9.366811
5.457451,9.248312
5.546413,9.215091
5.679857,9.363677
5.813301,9.78512
5.880023,10.09358
5.946745,10.44727
6.013467,10.82198
6.080188,11.18941
6.169151,11.61622
6.258113,11.92164
6.347076,12.07471
6.436038,12.07007
6.480519,12.00784
6.52433,11.90254
6.568141,11.75458
6.611952,11.56214
6.633858,11.44771
6.655763,11.32006
6.676195,11.18861
6.696627,11.04526
6.717059,10.89087
6.73749,10.72796
6.757922,10.56256
6.768138,10.48256
6.778353,10.40765
6.788569,10.34148
6.798785,10.28909
6.809001,10.25716
6.819216,10.25431
6.830113,10.29541
6.84101,10.39729
6.854097,10.62445
6.867183,10.99439
6.880269,11.53143
6.893355,12.2458
6.906442,13.12555
6.919528,14.1313
6.932614,15.19803
6.9457,16.24365
6.9592,17.21103
6.9727,17.98967
6.9862,18.53347
6.9997,18.8324
7.015638,18.90149
7.031575,18.73271
7.047513,18.41027
7.06345,18.00898
7.079388,17.5836
7.095325,17.16824
7.111262,16.78044
7.127199,16.42696
7.140126,16.16599
7.153053,15.92686
7.16598,15.70776
7.178906,15.50674
7.191833,15.32177
7.20476,15.15104
7.230613,14.84588
7.256467,14.58036
7.28232,14.34638
7.308174,14.13782
7.334027,13.95001
7.365964,13.74106
7.397901,13.55212
7.429838,13.37889
7.461775,13.21852
7.525649,12.92789
7.589522,12.66647
7.653396,12.4247
7.717269,12.19562
7.781143,11.97374
7.845016,11.75428
7.918015,11.50049
7.991013,11.2363
8.036638,11.06187
8.082262,10.87696
8.127886,10.67804
8.17351,10.46078
8.196322,10.34337
8.219134,10.21871
8.241946,10.08556
8.264758,9.942537
8.28757,9.788073
8.310382,9.620334
8.333194,9.437211
8.356006,9.236374
8.374256,9.061387
8.392505,8.872748
8.410755,8.670628
8.41988,8.565203
8.429004,8.457794
8.438129,8.349645
8.447254,8.242755
8.456379,8.140137
8.465503,8.046229
8.474628,7.967336
8.483753,7.912233
8.492878,7.892664
8.502002,7.923775
8.509607,8.001832
8.517211,8.140601
8.524815,8.353863
8.532419,8.655914
8.540692,9.101524
8.548965,9.683965
8.557238,10.41389
8.56551,11.29467
8.573783,12.32068
8.582055,13.47495
8.590328,14.7296
8.5986,16.04561
8.6104,17.93513
8.6222,19.70266
8.634,21.20428
8.6458,22.32868
8.654189,22.86338
8.662577,23.17224
8.679353,23.16604
8.696129,22.5124
8.712905,21.48608
8.724558,20.68778
8.736211,19.89185
8.747864,19.13827
8.759517,18.44879
8.77117,17.83156
8.782823,17.2859
8.794476,16.80626
8.806128,16.38504
8.816228,16.06096
8.826327,15.7699
8.836426,15.50744
8.846525,15.26979
8.856624,15.05368
8.866723,14.85634
8.886921,14.50887
8.907119,14.21238
8.927317,13.95595
8.947515,13.73158
8.967713,13.53334
8.998788,13.26948
9.029862,13.0455
9.060936,12.85313
9.09201,12.68609
9.123085,12.53974
9.154159,12.411
9.216307,12.19913
9.266026,12.06858
9.315745,11.97072
9.365464,11.90661
9.415182,11.88101
9.439671,11.886
9.464159,11.9059
9.488647,11.94475
9.513135,12.00914
9.52538,12.05411
9.537624,12.10997
9.549868,12.17884
9.562112,12.26291
9.574356,12.36397
9.5866,12.4827
9.598844,12.61777
9.611088,12.76482
9.626413,12.95308
9.640774,13.11387
9.655134,13.23538
9.669494,13.29548
9.683854,13.28029
9.69151,13.24064
9.70108,13.1631
9.71065,13.05994
9.718307,12.96408
9.725963,12.86122
9.733619,12.75591
9.741275,12.65243
9.756588,12.46531
9.7719,12.32077
9.786157,12.23158
9.800413,12.18438
9.814669,12.17255
9.828925,12.18785
9.843182,12.22251
9.857438,12.27027
9.871694,12.32653
9.88595,12.38812
9.914463,12.51952
9.942975,12.65436
10,12.91507
10.03863,13.07406
10.07725,13.21067
10.1545,13.40525
10.309,13.49453
10.4109,13.37081
10.46185,13.27363
10.5128,13.1593
10.56375,13.03369
10.6147,12.90107
10.66565,12.76441
10.7166,12.62588
10.76755,12.48702
10.8185,12.34887
10.86945,12.2121
10.9204,12.07712
10.97135,11.9441
11.0223,11.81308
11.07325,11.68399
11.12419,11.55671
11.21322,11.33788
11.30224,11.12252
11.39127,10.90901
11.48029,10.69568
11.55151,10.52389
11.62273,10.34999
11.69395,10.17288
11.76516,9.991359
11.84529,9.78008
11.92541,9.559188
12.00553,9.325917
12.08565,9.076884
12.16577,8.807862
12.20583,8.664346
12.24589,8.513943
12.28595,8.355649
12.32601,8.188172
12.36607,8.010378
12.40613,7.821392
12.43729,7.66627
12.46845,7.504072
12.49961,7.335486
12.53077,7.162451
12.56193,6.989314
12.57751,6.905187
12.59309,6.824793
12.60867,6.750385
12.62425,6.684888
12.63983,6.631992
12.6554,6.596198
12.6732,6.582871
12.691,6.607108
12.723,6.770618
12.755,7.110546
12.771,7.34272
12.787,7.605714
12.803,7.886172
12.819,8.167674
12.83488,8.430709
12.85473,8.711945
12.87457,8.917249
12.89441,9.032599
12.91425,9.055513
12.94765,8.908517
12.98105,8.589212
12.99775,8.387915
13.01445,8.169048
13.03115,7.938315
13.04784,7.700062
13.06239,7.48844
13.07694,7.274625
13.09149,7.059646
13.10603,6.844517
13.12058,6.629855
13.13512,6.417146
13.14967,6.207887
13.16421,6.005214
13.17876,5.813521
13.19331,5.640721
13.20786,5.499887
13.2224,5.413168
13.22968,5.400874
13.23695,5.41774
13.24423,5.472419
13.2515,5.575702
13.25878,5.74169
13.26605,5.987101
13.27332,6.333174
13.28059,6.805316
13.28969,7.620366
13.29424,8.141014
13.29878,8.748357
13.30333,9.455359
13.30787,10.26966
13.31242,11.20597
13.31696,12.27142
13.32151,13.48193
13.32605,14.84302
13.3306,16.37093
13.33514,18.06816
13.34423,22.01448
13.35332,26.72128
13.36333,32.78055
13.37333,39.67414
13.39333,55.21856
13.40382,63.65393
13.41431,71.69746
13.4248,78.85784
13.43528,84.67027
13.4432,87.94294
13.45115,90.1312
13.4643,91.20649
13.47745,89.20666
13.4906,84.57831
13.50374,78.0374
13.51811,69.6569
13.53248,60.96924
13.53967,56.7629
13.54685,52.75566
13.55403,48.99235
13.56121,45.50582
13.5678,42.56422
13.57438,39.87739
13.58097,37.43282
13.58755,35.22778
13.59414,33.24133
13.60072,31.46268
13.60731,29.86819
13.61389,28.44416
13.62048,27.16811
13.62706,26.0267
13.63365,25.00054
13.64023,24.07828
13.64682,23.24422
13.6534,22.48949
13.66657,21.17474
13.68094,19.97743
13.69531,18.96856
13.70968,18.1043
13.72404,17.35361
13.73841,16.69247
13.75278,16.10437
13.76715,15.57637
13.78151,15.09879
13.81025,14.26333
13.83898,13.55222
13.86771,12.93387
13.89644,12.3863
13.92518,11.89363
13.95391,11.44492
13.98265,11.0316
14.01138,10.64778
14.05688,10.0889
14.10238,9.579422
14.14788,9.112912
14.19337,8.6893
14.23887,8.315806
14.26162,8.153004
14.28436,8.010786
14.30711,7.894169
14.32986,7.810408
14.35261,7.76957
14.37535,7.785722
14.3993,7.886118
14.42324,8.104399
14.44719,8.488869
14.47113,9.111358
14.48311,9.544906
14.49508,10.08358
14.50705,10.75178
14.51902,11.58004
14.531,12.60799
14.54297,13.88295
14.55494,15.46749
14.56691,17.43887
14.58008,20.16911
14.59325,23.63796
14.60642,28.02932
14.61301,30.63749
14.61959,33.55165
14.63276,40.42566
14.64593,48.86186
14.6591,59.02696
14.67227,71.00023
14.68599,85.33322
14.69971,101.291
14.72714,135.7276
14.74086,152.4768
14.75457,167.501
14.76829,179.7797
14.782,188.4315
14.791,191.8606
14.8,193.4138
14.81203,192.5838
14.82405,188.6464
14.83608,182.0092
14.8481,173.2349
14.87215,151.7362
14.89619,128.8327
14.91356,113.3498
14.93093,99.57064
14.93962,93.40749
14.9483,87.74462
14.95698,82.56147
14.96566,77.83506
14.97435,73.53132
14.98303,69.6272
15.0004,62.86199
15.01777,57.27461
15.03513,52.63384
15.05067,49.12121
15.06621,46.09867
15.08175,43.47729
15.09729,41.18619
15.11283,39.16889
15.12837,37.3802
15.14391,35.78385
15.15944,34.35146
15.19052,31.88333
15.2216,29.83373
15.25268,28.10398
15.28375,26.62405
15.32032,25.13218
15.35688,23.85338
15.39344,22.74286
15.43,21.76728
15.47388,20.7385
15.51775,19.83482
15.56163,19.0356
15.6055,18.32973
15.66407,17.52555
15.72263,16.89355
15.78119,16.48403
15.83975,16.37155
15.88382,16.52753
15.92788,16.90692
15.97194,17.47678
15.99397,17.8044
16.016,18.13764
16.0455,18.55905
16.075,18.91241
16.1045,19.16462
16.134,19.29856
16.18835,19.24127
16.24269,18.86758
16.26987,18.59926
16.29704,18.2963
16.32421,17.9711
16.35138,17.63395
16.37125,17.38475
16.3961,17.07512
16.42094,16.77373
16.44579,16.48808
16.47063,16.22912
16.49548,16.01194
16.52032,15.85785
16.54516,15.79354
16.57,15.84851
16.60075,16.11852
16.6315,16.62368
16.64688,16.95234
16.66225,17.31564
16.67763,17.69709
16.693,18.07659
16.71588,18.59505
16.73875,19.00597
16.76163,19.27037
16.7845,19.3747
16.82811,19.18391
16.84992,18.95089
16.87172,18.66564
16.89353,18.35258
16.91533,18.03021
16.93714,17.71025
16.95894,17.39995
16.97194,17.22091
16.98493,17.04689
17.01092,16.71348
17.03691,16.39872
17.06289,16.10059
17.08888,15.81639
17.11487,15.54374
17.14086,15.28034
17.16684,15.02414
17.19883,14.71557
17.23081,14.41153
17.2628,14.1087
17.29478,13.80426
17.32677,13.4951
17.35875,13.17848
17.39073,12.85141
17.42271,12.51101
17.4507,12.20006
17.47869,11.8755
17.50668,11.53694
17.52067,11.36292
17.53466,11.18644
17.54866,11.00852
17.56265,10.83136
17.57664,10.65807
17.59063,10.49402
17.60463,10.34795
17.61862,10.23457
17.63261,10.17724
17.63961,10.18059
17.6466,10.2134
17.6536,10.28372
17.6606,10.40131
17.6676,10.57807
17.67459,10.82782
17.68159,11.16815
17.68859,11.61847
17.69559,12.20144
17.70258,12.94146
17.71308,14.41204
17.72357,16.40514
17.73407,19.03475
17.74456,22.40264
17.75506,26.60641
17.76555,31.69837
17.77605,37.70145
17.78654,44.55497
17.79754,52.52514
17.80853,61.05618
17.81952,69.82949
17.83051,78.44765
17.84029,85.63185
17.85006,92.03006
17.85983,97.36603
17.8696,101.4055
17.87735,103.5761
17.89122,105.0427
17.90509,103.4609
17.91896,99.18873
17.93282,92.84154
17.96503,74.18787
17.98114,64.84213
17.98919,60.50176
17.99724,56.45309
18.00463,53.01881
18.01201,49.86997
18.01939,47.00218
18.02677,44.408
18.03416,42.07109
18.04154,39.98031
18.04892,38.11239
18.0563,36.44625
18.06369,34.95881
18.07107,33.63362
18.07845,32.44936
18.08583,31.38844
18.09321,30.43511
18.10059,29.57544
18.10797,28.79736
18.11535,28.09052
18.12609,27.17149
18.13683,26.3635
18.14757,25.65042
18.1583,25.0211
18.16904,24.46616
18.17978,23.9806
18.19816,23.29981
18.21653,22.79605
18.23491,22.45085
18.25328,22.23704
18.26463,22.15384
18.27597,22.09504
18.2805,22.0758
18.29408,22.02349
18.30765,21.96582
18.32471,21.86449
18.34177,21.71617
18.35883,21.51735
18.37589,21.2754
18.38863,21.07475
18.40137,20.86432
18.41411,20.65036
18.42685,20.4381
18.43959,20.23152
18.45233,20.03326
18.46507,19.84485
18.47781,19.66686
18.49055,19.49922
18.50329,19.34147
18.52877,19.05276
18.55425,18.79465
18.57973,18.56165
18.6159,18.26561
18.65206,18.0022
18.68823,17.76464
18.72439,17.54833
18.76056,17.34976
18.79672,17.16646
18.86904,16.83761
18.94137,16.54914
19.0137,16.29264
19.08603,16.06179
19.15835,15.85061
19.26356,15.57147
19.36877,15.31931
19.47398,15.08789
19.57918,14.87221
19.65809,14.71821
19.73699,14.56906
19.8159,14.42312
19.8948,14.27867
20,14.085
20.0525,13.98626
20.10499,13.88476
20.15748,13.77899
20.20997,13.66701
20.26247,13.54612
20.28872,13.48117
20.31496,13.41238
20.34121,13.33879
20.36745,13.25933
20.3937,13.17248
20.40682,13.12574
20.41994,13.07644
20.43963,12.99699
20.45932,12.91008
20.46917,12.86353
20.47901,12.81488
20.48885,12.76408
20.49869,12.71122
20.50854,12.65645
20.51838,12.60025
20.52822,12.54318
20.53806,12.4861
20.54791,12.43016
20.55775,12.37703
20.56759,12.32864
20.57743,12.28737
20.58728,12.25597
20.59712,12.23758
20.60696,12.23543
20.6168,12.25282
20.65616,12.57109
20.66666,12.7304
20.6815,13.00533
20.69634,13.32748
20.71118,13.67868
20.72602,14.03645
20.73654,14.28095
20.74706,14.50869
20.75758,14.71267
20.7681,14.88743
20.79239,15.16253
20.81668,15.25812
20.84097,15.20826
20.85311,15.14539
20.86525,15.06636
20.87464,14.99803
20.88402,14.92613
20.89341,14.85252
20.90279,14.77893
20.91218,14.70642
20.92156,14.63602
20.93094,14.56824
20.94032,14.50343
20.94971,14.44171
20.95909,14.38324
20.96847,14.32788
20.97785,14.27551
20.99662,14.17899
21.01538,14.09223
21.02753,14.0405
21.03967,13.99186
21.06396,13.90236
21.08825,13.82145
21.11253,13.74743
21.13682,13.67888
21.1611,13.61486
21.18539,13.55451
21.20967,13.49723
21.25824,13.38984
21.30681,13.28947
21.35538,13.19369
21.40395,13.10054
21.4459,13.02087
21.48785,12.94075
21.5298,12.85885
21.57175,12.77339
21.59273,12.72854
21.6137,12.68171
21.63468,12.63223
21.65565,12.57933
21.66614,12.55125
21.67663,12.52191
21.68712,12.49115
21.6976,12.45888
21.70809,12.42491
21.71857,12.38925
21.72906,12.35187
21.73954,12.313
21.74837,12.27931
21.7572,12.2451
21.76769,12.20442
21.77818,12.1647
21.78867,12.1273
21.79916,12.09387
21.80965,12.06629
21.82014,12.04659
21.83063,12.03681
21.84111,12.03879
21.86429,12.09121
21.87588,12.14326
21.88747,12.21118
21.8985,12.2881
21.90975,12.37538
21.921,12.46726
21.92663,12.51348
21.93507,12.58138
21.9435,12.64577
21.95333,12.71417
21.96315,12.77307
21.9828,12.85621
22.01674,12.88409
22.03371,12.85185
22.0422,12.82759
