
Incident energy; Cross section
1.0E-5;22609.05
1.0625E-5;21933.85
1.125E-5;21315.72
1.1875E-5;20747.06
1.25E-5;20221.59
1.375E-5;19280.27
1.5E-5;18459.19
1.625E-5;17734.78
1.75E-5;17089.42
1.875E-5;16509.72
2.0E-5;15985.25
2.1875E-5;15284.5
2.375E-5;14668.46
2.5625E-5;14121.33
2.75E-5;13631.14
2.9375E-5;13188.65
3.125E-5;12786.61
3.3125E-5;12419.2
3.5E-5;12081.71
3.875E-5;11481.76
4.25E-5;10963.07
4.625E-5;10508.79
5.0E-5;10106.61
5.3125E-5;9804.513
5.625E-5;9527.945
5.9375E-5;9273.501
6.25E-5;9038.378
6.875E-5;8617.16
7.5E-5;8249.732
8.125E-5;7925.539
8.75E-5;7636.712
9.375E-5;7377.255
1.0E-4;7142.502
1.0625E-4;6928.766
1.125E-4;6733.084
1.1875E-4;6553.05
1.25E-4;6386.681
1.375E-4;6088.619
1.5E-4;5828.601
1.625E-4;5599.164
1.75E-4;5394.742
1.875E-4;5211.094
2.0E-4;5044.921
2.1875E-4;4822.864
2.375E-4;4627.612
2.5625E-4;4454.167
2.75E-4;4298.746
2.9375E-4;4158.425
3.125E-4;4030.904
3.3125E-4;3914.346
3.5E-4;3807.263
3.875E-4;3616.849
4.25E-4;3452.163
4.625E-4;3307.877
5.0E-4;3180.094
5.3125E-4;3084.078
5.625E-4;2996.149
5.9375E-4;2915.231
6.25E-4;2840.436
6.875E-4;2706.385
7.5E-4;2589.385
8.125E-4;2486.095
8.75E-4;2394.022
9.375E-4;2311.266
0.001;2236.348
0.0010625;2168.101
0.001125;2105.584
0.0011875;2048.035
0.00125;1994.826
0.001375;1899.421
0.0015;1816.103
0.001625;1742.504
0.00175;1676.859
0.001875;1617.822
0.002;1564.347
0.0021875;1492.798
0.002375;1429.793
0.0025625;1373.746
0.00275;1323.457
0.0029375;1277.996
0.003125;1236.633
0.0033125;1198.782
0.0035;1163.968
0.0036875;1131.8
0.003875;1101.955
0.00425;1048.195
0.004625;1000.988
0.005;959.0929
0.0053125;927.5597
0.005625;898.6425
0.0059375;871.9952
0.00625;847.3316
0.006875;803.0383
0.0075;764.2714
0.008125;729.9592
0.00875;699.3089
0.009375;671.7158
0.01;646.7067
0.010625;623.9055
0.01125;603.0096
0.011875;583.7721
0.0125;565.9881
0.013125;549.4846
0.01375;534.1137
0.015;506.2849
0.01625;481.7087
0.0175;459.8155
0.01875;440.1751
0.02;422.4459
0.021325;405.4334
0.02265;389.995
0.023975;375.9181
0.0253;363.0281
0.02665079;350.9579
0.02800157;339.8412
0.02935235;329.5711
0.03070313;320.0583
0.03340469;303.0135
0.03610625;288.2239
0.03880782;275.3005
0.04150938;263.9149
0.04421094;253.8363
0.0469125;244.8988
0.05;235.9005
0.053125;227.9396
0.05625;220.9826
0.059375;214.9083
0.0625;209.6173
0.065625;205.0279
0.06875;201.0724
0.071875;197.6946
0.075;194.8478
0.078125;192.4932
0.08125;190.5987
0.084375;189.139
0.0875;188.0957
0.090625;187.4566
0.09375;187.2057
0.1;187.781
0.1034509;188.7016
0.1069018;190.0639
0.1103527;191.8676
0.1138035;194.1076
0.1172544;196.7827
0.1207052;199.8938
0.1241561;203.4406
0.1276069;207.4181
0.1345087;216.6199
0.1414104;227.3527
0.1483121;239.4318
0.1552138;252.7779
0.1590717;260.8507
0.1629295;269.4606
0.1667873;278.7232
0.1706451;288.7759
0.1745029;299.7657
0.1783607;311.8391
0.1822185;325.134
0.1860763;339.7759
0.1895573;354.2385
0.1930382;369.966
0.1965191;387.0235
0.2;405.458
0.2027194;420.8358
0.2054388;437.0747
0.2108775;472.1004
0.2163163;510.2973
0.221755;551.0596
0.2271938;593.3814
0.2326325;635.7736
0.2380713;676.1563
0.2407907;694.7954
0.24351;711.929
0.246075;726.3862
0.24864;738.8865
0.251205;749.1517
0.25377;756.934
0.25719;763.0996
0.26061;764.1508
0.2629613;761.8231
0.2653125;757.0164
0.2676638;749.7883
0.270015;740.2425
0.2723663;728.5218
0.2747175;714.8058
0.2770688;699.2997
0.27942;682.2312
0.2841225;644.3638
0.288825;603.1256
0.2935275;560.3098
0.29823;517.4398
0.30165;486.9188
0.30507;457.3454
0.3092581;422.7813
0.3134461;390.3113
0.3155402;374.9142
0.3176342;360.0908
0.3197282;345.8429
0.3218222;332.1682
0.3239163;319.0599
0.3260103;306.5091
0.3281043;294.5027
0.3301983;283.0256
0.3322923;272.0615
0.3343863;261.5926
0.3364803;251.6005
0.3385743;242.0663
0.3424684;225.4884
0.3463624;210.3071
0.3502565;196.4039
0.3541505;183.6678
0.3580446;171.9935
0.3619386;161.2848
0.3658326;151.4525
0.3697266;142.4153
0.3736207;134.0992
0.3775147;126.4379
0.3814088;119.3707
0.3853028;112.8435
0.3891969;106.807
0.3930909;101.2176
0.396985;96.03559
0.400879;91.22576
0.4042421;87.34619
0.4076051;83.70088
0.4109682;80.27176
0.4143312;77.04258
0.4176943;73.99823
0.4210573;71.12547
0.4244203;68.41219
0.4277833;65.84753
0.4311464;63.42148
0.4345094;61.125
0.4378724;58.94946
0.4412354;56.88693
0.4479615;53.07199
0.4546875;49.62779
0.4603516;46.98171
0.4660157;44.54344
0.4716798;42.29297
0.4773438;40.21317
0.4830079;38.28891
0.4886719;36.50617
0.5;33.31012
0.515625;29.55853
0.53125;26.41922
0.546875;23.77782
0.5625;21.53717
0.578125;19.62127
0.59375;17.97113
0.609375;16.54212
0.625;15.30748
0.65625;13.2575
0.6875;11.63324
0.71875;10.33676
0.75;9.286223
0.78125;8.423707
0.8125;7.707346
0.84375;7.106359
0.875;6.602809
0.9375;5.79939
1.0;5.194684
1.049697;4.822169
1.099394;4.517899
1.149091;4.266952
1.198788;4.063096
1.265051;3.852089
1.331313;3.699352
1.397576;3.600631
1.463838;3.558134
1.529204;3.578397
1.594569;3.669925
1.627252;3.739429
1.659935;3.815331
1.7253;3.920529
1.7558;3.917451
1.7863;3.876622
1.8168;3.796282
1.8473;3.693376
1.885475;3.559039
1.92365;3.437434
2.0;3.251334
2.070438;3.145506
2.140875;3.088684
2.28175;3.063023
2.43143;3.119089
2.58111;3.242807
2.73079;3.433279
2.880469;3.702394
3.030149;4.075314
3.179829;4.580977
3.254669;4.916745
3.329509;5.32428
3.404349;5.826181
3.479188;6.455668
3.534218;7.028416
3.589247;7.724496
3.644277;8.570715
3.699306;9.653691
3.754336;11.05967
3.781851;11.92676
3.809365;12.93699
3.83688;14.12541
3.864394;15.5362
3.891909;17.22721
3.919423;19.28908
3.942536;21.40682
3.965648;23.98934
3.98876;27.18471
4.011872;31.21029
4.023429;33.63086
4.034985;36.39287
4.046541;39.56546
4.058097;43.23629
4.069653;47.51908
4.081209;52.56455
4.092765;58.57609
4.104321;65.83207
4.115878;74.72024
4.127434;85.78747
4.13899;99.83088
4.144768;108.3184
4.150546;118.0352
4.156325;129.2275
4.162103;142.1918
4.167881;157.2968
4.173659;174.9866
4.179437;195.79
4.185215;220.3233
4.190993;249.2821
4.196771;283.4196
4.201173;313.3789
4.206676;356.1769
4.212179;405.4091
4.217682;461.4233
4.223185;524.2764
4.228688;593.6256
4.234191;668.6291
4.239694;747.8724
4.245196;829.3257
4.254288;961.7159
4.26338;1078.945
4.272472;1166.191
4.281563;1211.137
4.2855;1215.543
4.291425;1204.5
4.29735;1173.015
4.304071;1115.246
4.310791;1038.575
4.317512;948.719
4.324232;851.7495
4.337673;658.086
4.344393;569.6278
4.351113;490.1187
4.359617;403.8353
4.363869;366.7307
4.36812;333.4741
4.372372;303.8217
4.376623;277.5167
4.380875;254.2537
4.385126;233.7453
4.389378;215.6896
4.393629;199.8183
4.402132;173.6127
4.410635;153.3704
4.419138;137.7188
4.426224;127.4293
4.43331;119.1586
4.440396;112.5649
4.447482;107.3893
4.454568;103.4365
4.461654;100.5605
4.475825;97.62902
4.484269;97.48215
4.492713;98.42617
4.5096;103.3155
4.52625;111.5224
4.5429;122.0532
4.55955;133.1686
4.567875;138.2126
4.5762;142.4786
4.5873;146.4243
4.5984;147.847
4.606725;147.0498
4.61505;144.6258
4.6317;135.3499
4.649127;121.0185
4.666553;104.6214
4.675266;96.4314
4.683979;88.56082
4.692692;81.16429
4.701405;74.33573
4.707415;69.98068
4.713425;65.91976
4.719435;62.14873
4.725445;58.65817
4.731455;55.43506
4.737465;52.46404
4.743475;49.72853
4.749484;47.21185
4.761504;42.76571
4.773524;38.99844
4.785544;35.79692
4.797563;33.06467
4.810216;30.60654
4.822868;28.50219
4.848173;25.12104
4.873478;22.56676
4.898782;20.61136
4.924087;19.0975
4.949391;17.90992
4.974696;16.96974
5.0;16.22695
5.047641;15.23516
5.095282;14.63309
5.142923;14.3233
5.190563;14.2531
5.279526;14.56955
5.368488;15.33833
5.457451;16.4832
5.546413;17.92586
5.679857;20.42745
5.813301;22.85575
5.880023;23.81783
5.946745;24.48949
6.013467;24.81579
6.080188;24.776
6.169151;24.22189
6.258113;23.30764
6.347076;22.36323
6.436038;21.77179
6.480519;21.77782
6.52433;22.13179
6.568141;22.97275
6.611952;24.53383
6.633858;25.71228
6.655763;27.26499
6.676195;29.15291
6.696627;31.59724
6.717059;34.78201
6.73749;38.97547
6.757922;44.57106
6.768138;48.06293
6.778353;52.13208
6.788569;56.88251
6.798785;62.42931
6.809001;68.896
6.819216;76.40482
6.830113;85.68571
6.84101;96.36053
6.854097;111.0124
6.867183;127.4039
6.880269;144.8994
6.893355;162.436
6.906442;178.5771
6.919528;191.6892
6.932614;200.2438
6.9457;203.1454
6.9592;199.8006
6.9727;190.473
6.9862;176.3922
6.9997;159.2505
7.015638;137.4761
7.031575;116.3243
7.047513;97.36298
7.06345;81.29076
7.079388;68.15387
7.095325;57.63832
7.111262;49.29204
7.127199;42.66586
7.140126;38.28655
7.153053;34.61589
7.16598;31.51808
7.178906;28.8848
7.191833;26.62931
7.20476;24.68329
7.230613;21.51333
7.256467;19.06031
7.28232;17.12309
7.308174;15.56779
7.334027;14.30198
7.365964;13.03907
7.397901;12.02214
7.429838;11.1882
7.461775;10.49793
7.525649;9.443497
7.589522;8.704003
7.653396;8.190087
7.717269;7.851389
7.781143;7.661365
7.845016;7.610406
7.918015;7.729827
7.991013;8.073028
8.036638;8.432934
8.082262;8.940801
8.127886;9.643694
8.17351;10.61215
8.196322;11.23191
8.219134;11.97207
8.241946;12.86337
8.264758;13.94557
8.28757;15.27224
8.310382;16.91801
8.333194;18.98993
8.356006;21.64739
8.374256;24.35675
8.392505;27.78722
8.410755;32.22401
8.41988;34.94738
8.429004;38.10073
8.438129;41.77711
8.447254;46.09145
8.456379;51.18676
8.465503;57.23774
8.474628;64.45676
8.483753;73.09014
8.492878;83.41531
8.502002;95.72497
8.509607;107.7098
8.517211;121.4142
8.524815;136.9399
8.532419;154.3202
8.540692;175.2638
8.548965;198.0942
8.557238;222.3798
8.56551;247.4764
8.573783;272.5464
8.582055;296.5737
8.590328;318.451
8.5986;337.046
8.6104;355.8841
8.6222;363.7155
8.634;359.5696
8.6458;343.9811
8.654189;326.9477
8.662577;306.0868
8.679353;257.4821
8.696129;207.0528
8.712905;161.4714
8.724558;134.5732
8.736211;111.9764
8.747864;93.47287
8.759517;78.57823
8.77117;66.70012
8.782823;57.25196
8.794476;49.71498
8.806128;43.66207
8.816228;39.35297
8.826327;35.73341
8.836426;32.66873
8.846525;30.05397
8.856624;27.80692
8.866723;25.86291
8.886921;22.68919
8.907119;20.23262
8.927317;18.29589
8.947515;16.74591
8.967713;15.49102
8.998788;13.99339
9.029862;12.88571
9.060936;12.06389
9.09201;11.45572
9.123085;11.01085
9.154159;10.69692
9.216307;10.38639
9.266026;10.39375
9.315745;10.60985
9.365464;11.05008
9.415182;11.78129
9.439671;12.30058
9.464159;12.9821
9.488647;13.90878
9.513135;15.23694
9.52538;16.13708
9.537624;17.26578
9.549868;18.69685
9.562112;20.5195
9.574356;22.83155
9.5866;25.72387
9.598844;29.25469
9.611088;33.41557
9.626413;39.33072
9.640774;45.16751
9.655134;50.63719
9.669494;54.98279
9.683854;57.51336
9.69151;57.95885
9.70108;57.58446
9.71065;56.21655
9.718307;54.4847
9.725963;52.28351
9.733619;49.72123
9.741275;46.91455
9.756588;41.02228
9.7719;35.39545
9.786157;30.84562
9.800413;27.14171
9.814669;24.2766
9.828925;22.13804
9.843182;20.57432
9.857438;19.43845
9.871694;18.60827
9.88595;17.99159
9.914463;17.15491
9.942975;16.60756
10.0;15.83811
10.03863;15.37633
10.07725;14.89454
10.1545;13.81091
10.309;11.36114
10.4109;9.782734
10.46185;9.060987
10.5128;8.399658
10.56375;7.799862
10.6147;7.260378
10.66565;6.778467
10.7166;6.350282
10.76755;5.971445
10.8185;5.637464
10.86945;5.343993
10.9204;5.08699
10.97135;4.862795
11.0223;4.668152
11.07325;4.500211
11.12419;4.356544
11.21322;4.15757
11.30224;4.017703
11.39127;3.930966
11.48029;3.893964
11.55151;3.899423
11.62273;3.936703
11.69395;4.007651
11.76516;4.115508
11.84529;4.28742
11.92541;4.523539
12.00553;4.840774
12.08565;5.265324
12.16577;5.838532
12.20583;6.199381
12.24589;6.623527
12.28595;7.128549
12.32601;7.740234
12.36607;8.491486
12.40613;9.426672
12.43729;10.32141
12.46845;11.40822
12.49961;12.74645
12.53077;14.41979
12.56193;16.54319
12.57751;17.81917
12.59309;19.26644
12.60867;20.90814
12.62425;22.76736
12.63983;24.86486
12.6554;27.21402
12.6732;30.21434
12.691;33.52971
12.723;40.05582
12.755;46.59895
12.771;49.50006
12.787;51.92474
12.803;53.71759
12.819;54.76396
12.83488;55.00973
12.85473;54.23259
12.87457;52.41394
12.89441;49.8373
12.91425;46.84168
12.94765;41.74359
12.98105;37.54853
12.99775;35.99434
13.01445;34.85018
13.03115;34.12929
13.04784;33.83784
13.06239;33.93876
13.07694;34.37925
13.09149;35.17516
13.10603;36.35167
13.12058;37.9503
13.13512;40.02704
13.14967;42.66764
13.16421;45.98541
13.17876;50.15104
13.19331;55.40185
13.20786;62.08888
13.2224;70.72891
13.22968;76.02273
13.23695;82.12112
13.24423;89.20186
13.2515;97.44057
13.25878;107.0951
13.26605;118.4182
13.27332;131.7492
13.28059;147.4649
13.28969;171.1507
13.29424;184.9308
13.29878;200.1292
13.30333;216.937
13.30787;235.4041
13.31242;255.7329
13.31696;277.948
13.32151;302.2515
13.32605;328.6257
13.3306;357.257
13.33514;388.065
13.34423;456.5043
13.35332;533.6329
13.36333;627.396
13.37333;727.8969
13.39333;933.6446
13.40382;1032.994
13.41431;1117.833
13.4248;1181.89
13.43528;1220.101
13.4432;1229.896
13.45115;1222.624
13.4643;1174.297
13.47745;1086.6
13.4906;970.1669
13.50374;837.922
13.51811;689.8917
13.53248;551.227
13.53967;488.2653
13.54685;430.5766
13.55403;378.3892
13.56121;331.7751
13.5678;293.7893
13.57438;260.2255
13.58097;230.6909
13.58755;204.9356
13.59414;182.5154
13.60072;163.1278
13.60731;146.352
13.61389;131.8977
13.62048;119.4067
13.62706;108.6344
13.63365;99.29775
13.64023;91.20732
13.64682;84.15072
13.6534;77.9897
13.66657;67.79566
13.68094;59.1428
13.69531;52.34532
13.70968;46.89848
13.72404;42.46191
13.73841;38.79182
13.75278;35.72308
13.76715;33.13328
13.78151;30.93284
13.81025;27.43199
13.83898;24.83418
13.86771;22.89225
13.89644;21.44418
13.92518;20.38115
13.95391;19.6314
13.98265;19.14605
14.01138;18.89325
14.05688;18.9214
14.10238;19.44826
14.14788;20.48858
14.19337;22.10697
14.23887;24.42912
14.26162;25.91428
14.28436;27.66008
14.30711;29.71411
14.32986;32.13567
14.35261;35.00384
14.37535;38.42145
14.3993;42.76876
14.42324;48.09495
14.44719;54.70386
14.47113;63.01367
14.48311;67.99413
14.49508;73.64784
14.50705;80.10339
14.51902;87.51391
14.531;96.07513
14.54297;106.0033
14.55494;117.5853
14.56691;131.1584
14.58008;148.8704
14.59325;170.0916
14.60642;195.5086
14.61301;210.0265
14.61959;225.8379
14.63276;261.7511
14.64593;303.7595
14.6591;352.0626
14.67227;406.3706
14.68599;468.2977
14.69971;533.713
14.72714;662.3036
14.74086;717.4533
14.75457;760.7567
14.76829;788.6103
14.782;798.4877
14.791;794.7085
14.8;782.9273
14.81203;755.5453
14.82405;716.6649
14.83608;668.7533
14.8481;614.7634
14.87215;499.7677
14.89619;390.9993
14.91356;322.9062
14.93093;265.5388
14.93962;240.8538
14.9483;218.7178
14.95698;198.931
14.96566;181.2999
14.97435;165.6045
14.98303;151.6782
15.0004;128.2999
15.01777;109.7786
15.03513;94.99631
15.05067;84.20696
15.06621;75.22408
15.08175;67.67822
15.09729;61.28464
15.11283;55.82316
15.12837;51.12244
15.14391;47.04829
15.15944;43.49697
15.19052;37.63209
15.2216;33.0371
15.25268;29.38479
15.28375;26.45079
15.32032;23.70292
15.35688;21.54829
15.39344;19.86099
15.43;18.55215
15.47388;17.39075
15.51775;16.60754
15.56163;16.16413
15.6055;16.04714
15.66407;16.40425
15.72263;17.38755
15.78119;19.05648
15.83975;21.37026
15.88382;23.37308
15.92788;25.32645
15.97194;26.86656
15.99397;27.36149
16.016;27.62266
16.0455;27.57471
16.075;27.07955
16.1045;26.20034
16.134;25.04385
16.18835;22.61495
16.24269;20.40811
16.26987;19.55164
16.29704;18.91801
16.32421;18.54066
16.35138;18.45353
16.37125;18.59645
16.3961;19.05466
16.42094;19.87086
16.44579;21.11174
16.47063;22.85773
16.49548;25.20029
16.52032;28.21725
16.54516;31.94268
16.57;36.31032
16.60075;42.25568
16.6315;48.00511
16.64688;50.451
16.66225;52.40637
16.67763;53.74087
16.693;54.3552
16.71588;53.8456
16.73875;51.70767
16.76163;48.24324
16.7845;43.91395
16.82811;34.99237
16.84992;30.85749
16.87172;27.18859
16.89353;24.04095
16.91533;21.40801
16.93714;19.23931
16.95894;17.47315
16.97194;16.58409
16.98493;15.80238
17.01092;14.51285
17.03691;13.52551
17.06289;12.77973
17.08888;12.22968
17.11487;11.84297
17.14086;11.59672
17.16684;11.47564
17.19883;11.48488
17.23081;11.6622
17.2628;12.01017
17.29478;12.54096
17.32677;13.2785
17.35875;14.2597
17.39073;15.54044
17.42271;17.20246
17.4507;19.06422
17.47869;21.43123
17.50668;24.48552
17.52067;26.35277
17.53466;28.50975
17.54866;31.02286
17.56265;33.97373
17.57664;37.47896
17.59063;41.69709
17.60463;46.85532
17.61862;53.26534
17.63261;61.38946
17.63961;66.2942
17.6466;71.88652
17.6536;78.30818
17.6606;85.69967
17.6676;94.2333
17.67459;104.0924
17.68159;115.5306
17.68859;128.7874
17.69559;144.1407
17.70258;161.8627
17.71308;193.6621
17.72357;232.5923
17.73407;279.7262
17.74456;335.7623
17.75506;401.2234
17.76555;475.8484
17.77605;558.9231
17.78654;648.5868
17.79754;746.9163
17.80853;845.612
17.81952;939.9545
17.83051;1024.69
17.84029;1087.785
17.85006;1135.797
17.85983;1166.178
17.8696;1177.223
17.87735;1171.783
17.89122;1131.565
17.90509;1056.541
17.91896;954.8229
17.93282;836.6389
17.96503;553.7862
17.98114;430.9867
17.98919;377.2933
17.99724;329.0857
18.00463;289.6546
18.01201;254.7419
18.01939;224.0529
18.02677;197.2823
18.03416;174.0549
18.04154;154.069
18.04892;136.9263
18.0563;122.2762
18.06369;109.7761
18.07107;99.16215
18.07845;90.15192
18.08583;82.51509
18.09321;76.05438
18.10059;70.60333
18.10797;66.02342
18.11535;62.20067
18.12609;57.80308
18.13683;54.59222
18.14757;52.40121
18.1583;51.1005
18.16904;50.57624
18.17978;50.72274
18.19816;52.19308
18.21653;54.60009
18.23491;57.12431
18.25328;58.8925
18.26463;59.27059
18.27597;58.94566
18.2805;58.60275
18.29408;56.83113
18.30765;54.00371
18.32471;49.21901
18.34177;43.55074
18.35883;37.58441
18.37589;31.84545
18.38863;27.93938
18.40137;24.46419
18.41411;21.45735
18.42685;18.91332
18.43959;16.79648
18.45233;15.05401
18.46507;13.62654
18.47781;12.456
18.49055;11.49028
18.50329;10.68544
18.52877;9.424589
18.55425;8.476259
18.57973;7.72742
18.6159;6.887112
18.65206;6.221971
18.68823;5.676902
18.72439;5.219787
18.76056;4.829924
18.79672;4.493715
18.86904;3.944109
18.94137;3.515418
19.0137;3.174533
19.08603;2.899467
19.15835;2.6723
19.26356;2.407418
19.36877;2.204347
19.47398;2.049691
19.57918;1.935233
19.65809;1.873179
19.73699;1.831125
19.8159;1.810217
19.8948;1.813401
20.0;1.86446
20.0525;1.9167
20.10499;1.994456
20.15748;2.107695
20.20997;2.271401
20.26247;2.509743
20.28872;2.669202
20.31496;2.86598
20.34121;3.112439
20.36745;3.426346
20.3937;3.835241
20.40682;4.087791
20.41994;4.382081
20.43963;4.924571
20.45932;5.631342
20.46917;6.067392
20.47901;6.572696
20.48885;7.161554
20.49869;7.850441
20.50854;8.659479
20.51838;9.609064
20.52822;10.72454
20.53806;12.03254
20.54791;13.5624
20.55775;15.33834
20.56759;17.38668
20.57743;19.72734
20.58728;22.3752
20.59712;25.3257
20.60696;28.56773
20.6168;32.07031
20.65616;47.37673
20.66666;51.27415
20.6815;56.13292
20.69634;59.85145
20.71118;62.07977
20.72602;62.59803
20.73654;61.89432
20.74706;60.33799
20.75758;58.0075
20.7681;55.01643
20.79239;46.37225
20.81668;36.81528
20.84097;27.91582
20.85311;24.0287
20.86525;20.59328
20.87464;18.2537
20.88402;16.18629
20.89341;14.37204
20.90279;12.79521
20.91218;11.42984
20.92156;10.25511
20.93094;9.245954
20.94032;8.380051
20.94971;7.636155
