Incident energy,Cross section
1E-05,373.5524
1.0625E-05,362.399
1.125E-05,352.1884
1.1875E-05,342.795
1.25E-05,334.1151
1.375E-05,318.5661
1.5E-05,305.0037
1.625E-05,293.0379
1.75E-05,282.3783
1.875E-05,272.8032
2E-05,264.1404
2.1875E-05,252.5664
2.375E-05,242.3915
2.5625E-05,233.3549
2.75E-05,225.2591
2.9375E-05,217.9513
3.125E-05,211.3114
3.3125E-05,205.2436
3.5E-05,199.6702
3.875E-05,189.7627
4.25E-05,181.1972
4.625E-05,173.6959
5E-05,167.0551
5.3125E-05,162.0671
5.625E-05,157.5007
5.9375E-05,153.2997
6.25E-05,149.4179
6.875E-05,142.464
7.5E-05,136.3985
8.125E-05,131.0471
8.75E-05,126.2799
9.375E-05,121.9976
0.0001,118.1234
0.00010625,114.5962
0.0001125,111.3672
0.00011875,108.3966
0.000125,105.6516
0.0001375,100.7343
0.00015,96.44521
0.0001625,92.66105
0.000175,89.28991
0.0001875,86.26175
0.0002,83.5221
0.00021875,79.8617
0.0002375,76.64378
0.00025625,73.78582
0.000275,71.22534
0.00029375,68.91408
0.0003125,66.81406
0.00033125,64.89495
0.00035,63.13217
0.0003875,59.99854
0.000425,57.28934
0.0004625,54.91665
0.0005,52.81613
0.00053125,51.23835
0.0005625,49.79394
0.00059375,48.46509
0.000625,47.23718
0.0006875,45.03748
0.00075,43.11878
0.0008125,41.42593
0.000875,39.91784
0.0009375,38.56317
0.001,37.33755
0.0010625,36.22171
0.001125,35.20018
0.0011875,34.26038
0.00125,33.39194
0.001375,31.83617
0.0015,30.47907
0.001625,29.28163
0.00175,28.21482
0.001875,27.25646
0.002,26.38935
0.0021875,25.23075
0.002375,24.21214
0.0025625,23.30746
0.00275,22.49695
0.0029375,21.76532
0.003125,21.10055
0.0033125,20.493
0.0035,19.93489
0.003875,18.94248
0.00425,18.08413
0.004625,17.33215
0.005,16.66632
0.0053125,16.1662
0.005625,15.7084
0.0059375,15.28726
0.00625,14.8981
0.006875,14.20077
0.0075,13.59211
0.008125,13.05471
0.00875,12.57571
0.009375,12.14534
0.01,11.75599
0.010625,11.4016
0.01125,11.07728
0.011875,10.77898
0.0125,10.50334
0.01375,10.00914
0.015,9.577332
0.01625,9.195816
0.0175,8.855686
0.01875,8.55004
0.02,8.273422
0.021325,8.007077
0.02265,7.764354
0.023975,7.541952
0.0253,7.337181
0.02684375,7.117924
0.0283875,6.916805
0.02993125,6.731544
0.031475,6.560125
0.0345625,6.251795
0.03765,5.981135
0.0407375,5.741366
0.043825,5.527162
0.0469125,5.334267
0.05,5.15934
0.053125,4.997879
0.05625,4.849955
0.059375,4.713959
0.0625,4.588493
0.06875,4.362881
0.075,4.164799
0.08125,3.989609
0.0875,3.833222
0.09375,3.692459
0.1,3.564845
0.10625,3.448426
0.1125,3.34164
0.11875,3.243319
0.125,3.152761
0.1375,2.989537
0.15,2.845937
0.1625,2.718801
0.175,2.605163
0.1875,2.502766
0.2,2.41016
0.21875,2.285788
0.2375,2.175625
0.25625,2.077396
0.275,1.989059
0.29375,1.909038
0.3125,1.836088
0.33125,1.769214
0.35,1.707608
0.36875,1.650607
0.3875,1.597662
0.40625,1.548316
0.425,1.502418
0.5,1.344249
0.5625,1.236682
0.625,1.145154
0.75,0.9974933
0.875,0.8831141
1,0.7913841
1.125,0.7157856
1.25,0.6525001
1.375,0.5987242
1.5,0.5524677
1.75,0.4771495
2,0.4184312
2.1875,0.3822413
2.375,0.351369
2.5625,0.3247381
2.75,0.3016397
3.125,0.2635135
3.5,0.2335002
3.875,0.20947
4.25,0.1899277
4.625,0.1738309
5,0.1604373
5.365991,0.1495035
5.731982,0.1402312
6.463963,0.1255102
7.195944,0.1148315
7.561935,0.1110153
7.927925,0.1092032
8.014522,0.1099472
8.101118,0.1128394
8.144416,0.1165702
8.166065,0.1199392
8.187714,0.1256156
8.198539,0.1301231
8.209363,0.1366151
8.220188,0.1462488
8.231012,0.160778
8.236425,0.1706279
8.241837,0.1826926
8.247249,0.1973985
8.252661,0.2152008
8.258074,0.2365722
8.263486,0.2619613
8.268898,0.291784
8.27431,0.3263691
8.280437,0.3715189
8.286564,0.4230477
8.292691,0.4806125
8.298818,0.5434394
8.323326,0.8157066
8.33313,0.9113314
8.342933,0.98335
8.350667,1.017599
8.3584,1.028832
8.367683,1.010795
8.376965,0.9605875
8.38333,0.9104386
8.389695,0.8504295
8.402425,0.7126357
8.419929,0.5198706
8.428681,0.4347672
8.437432,0.3615109
8.446184,0.3010708
8.45056,0.2755732
8.454935,0.2530484
8.459311,0.2332942
8.463687,0.2160952
8.468063,0.2012148
8.472438,0.1884135
8.477212,0.1765322
8.481986,0.1665416
8.491533,0.1511592
8.50108,0.1403844
8.510627,0.1327825
8.520175,0.1273222
8.529722,0.1232978
8.548816,0.1178456
8.587005,0.1118456
8.625194,0.1085442
8.701572,0.1049868
8.77795,0.1030436
9.083463,0.0993715
9.388975,0.09774447
10,0.095265
10.77663,0.09420829
11.79595,0.09578957
12.30561,0.09773225
12.56044,0.09992771
12.68786,0.101259
12.81527,0.1042511
12.87292,0.1074745
12.90174,0.1105756
12.91615,0.113048
12.93056,0.1166987
12.94497,0.1223373
12.95938,0.1312714
12.96659,0.1375616
12.97379,0.1454522
12.981,0.1553145
12.9882,0.1674998
12.99541,0.1824344
13.00261,0.2004578
13.00982,0.221959
13.01702,0.247136
13.02423,0.276193
13.03143,0.309016
13.04584,0.3849279
13.06708,0.5110816
13.0777,0.5723787
13.08831,0.6261461
13.09741,0.662695
13.1065,0.687678
13.1187,0.7000766
13.12816,0.6920962
13.13761,0.6694121
13.15103,0.6156873
13.16445,0.5442238
13.1829,0.4347229
13.19212,0.3815529
13.20134,0.3323529
13.21057,0.2884573
13.21979,0.2506808
13.22901,0.2191179
13.23823,0.1934712
13.24494,0.1781932
13.25165,0.1654486
13.25836,0.1549287
13.26507,0.1463239
13.27849,0.1337003
13.2919,0.1255337
13.30532,0.1202586
13.31873,0.1168066
13.34556,0.1128396
13.39923,0.1094693
13.45289,0.1081441
13.56022,0.1075177
13.84197,0.1092106
14.12371,0.1118353
14.68719,0.1194459
15.25067,0.1295029
15.81415,0.1429327
16.09589,0.151022
16.37763,0.1606769
16.65937,0.1715531
16.94111,0.1842063
17.22285,0.1995602
17.50459,0.217116
17.78633,0.2381573
18.06807,0.2632652
18.30957,0.2896185
18.55106,0.3213237
18.79255,0.3599601
19.03404,0.4077601
19.27553,0.4679997
19.51702,0.5454711
19.63777,0.5921417
19.75851,0.6472047
19.87926,0.7118553
20,0.7884688
20.11217,0.8732262
20.22434,0.9747475
20.33651,1.098132
20.44868,1.250452
20.56085,1.440707
20.61694,1.554879
20.67302,1.685862
20.72911,1.837021
20.78519,2.012512
20.84127,2.218072
20.89735,2.461355
20.95344,2.752757
21.00952,3.106355
21.06561,3.541917
21.12169,4.087079
21.14974,4.413279
21.17778,4.784378
21.20582,5.209941
21.23386,5.701982
21.26191,6.276048
21.28995,6.951609
21.31799,7.755225
21.34603,8.722743
21.37408,9.904703
21.40212,11.37263
21.43016,13.23644
21.44418,14.36798
21.4582,15.67297
21.47223,17.19663
21.48625,18.99911
21.50027,21.1726
21.51429,23.85502
21.52831,27.25961
21.53532,29.33054
21.54233,31.71964
21.54934,34.49816
21.55635,37.7545
21.56336,41.59769
21.57037,46.16127
21.57673,51.06026
21.58308,56.81971
21.58944,63.62649
21.59579,71.65448
21.60215,81.1534
21.6085,92.3472
21.61485,105.5331
21.6212,121.0236
21.62756,139.1886
21.63391,160.3323
21.64027,184.8993
21.64662,213.1964
21.65298,245.6931
21.65933,282.6488
21.66568,324.4383
21.67203,371.3366
21.67685,410.4741
21.68167,452.7292
21.69131,546.629
21.70095,652.676
21.71058,769.5989
21.72022,895.6164
21.72986,1027.672
21.74914,1293.945
21.76842,1530.69
21.77806,1625.181
21.78769,1697.511
21.79815,1746.961
21.8086,1763.263
21.81034,1762.667
21.81538,1755.601
21.82041,1740.733
21.83047,1688.524
21.84241,1591.354
21.85434,1463.107
21.87344,1215.931
21.89253,951.9558
21.91004,724.1003
21.91879,621.4472
21.92754,528.1547
21.9363,444.8217
21.94505,371.8185
21.9538,308.8033
21.96255,255.2129
21.97131,210.2118
21.98006,172.9782
21.98881,142.4747
21.99319,129.4258
21.99756,117.7245
22.00194,107.2033
22.00632,97.78143
22.0107,89.35571
22.01507,81.84553
22.02382,69.14559
22.03257,59.04089
22.04133,50.98599
22.05008,44.55786
22.05883,39.39099
22.06758,35.20384
22.07634,31.77279
22.08509,28.93553
22.09384,26.55764
22.10259,24.54011
22.11294,22.51727
22.12328,20.80385
22.14397,18.04956
22.16466,15.9296
22.18535,14.24814
22.20604,12.8865
22.22673,11.76758
22.24742,10.8382
22.2681,10.06047
22.28879,9.405294
22.30948,8.851467
22.35085,7.984546
22.39223,7.363363
22.4336,6.928062
22.48453,6.592737
22.53545,6.440484
22.59275,6.460879
22.65004,6.675384
22.70733,7.09474
22.76462,7.751369
22.79327,8.186051
22.82191,8.705139
22.85056,9.323405
22.8792,10.05955
22.90785,10.93954
22.93649,11.99654
22.96514,13.27647
22.99378,14.8398
23.02243,16.77334
23.05107,19.19953
23.07972,22.3079
23.09404,24.20496
23.10836,26.40069
23.12269,28.9735
23.13701,32.02831
23.15133,35.72556
23.16565,40.30431
23.17998,46.13553
23.18714,49.68377
23.1943,53.77679
23.20146,58.53329
23.20862,64.09925
23.21578,70.65309
23.21936,74.36649
23.22294,78.41134
23.22653,82.83449
23.23011,87.64846
23.23369,92.90545
23.23727,98.64929
23.24085,104.9274
23.24443,111.7911
23.24801,119.2954
23.25159,127.4992
23.25518,136.4918
23.25876,146.2903
23.26234,156.9897
23.26592,168.6648
23.2695,181.3943
23.27308,195.2604
23.27666,210.3485
23.28024,226.7469
23.28581,255.0807
23.29138,287.157
23.29576,315.2409
23.30013,345.9575
23.30451,379.6163
23.30888,416.2253
23.31445,467.5102
23.32002,524.2383
23.32559,586.6481
23.33116,654.9189
23.33992,774.375
23.34867,908.3733
23.35743,1056.545
23.36618,1217.137
23.38368,1566.36
23.40118,1928.849
23.4163,2223.814
23.43142,2473.119
23.44017,2586.216
23.44892,2671.085
23.45816,2726.502
23.4674,2744.452
23.4693,2743.398
23.47469,2731.609
23.48008,2706.976
23.49085,2620.946
23.50487,2443.25
23.51889,2207.109
23.53126,1966.829
23.54363,1712.315
23.56837,1214.611
23.5791,1020.248
23.58982,845.4131
23.60054,691.9906
23.61126,560.5109
23.61662,502.8171
23.62198,450.2648
23.62734,402.6278
23.6327,359.645
23.63806,321.0302
23.64342,286.4807
23.64878,255.6858
23.65414,228.3328
23.66321,189.0283
23.67228,157.2775
23.68135,131.7769
23.69042,111.3715
23.69949,95.06606
23.70856,82.02308
23.71763,71.55289
23.7267,63.09789
23.73577,56.21448
23.74484,50.55467
23.75391,45.84849
23.76298,41.88843
23.77205,38.51589
23.78112,35.61013
23.79926,30.85289
23.81741,27.10894
23.83555,24.0794
23.85369,21.57265
23.87183,19.46402
23.88998,17.66647
23.90812,16.11977
23.92626,14.77643
23.9444,13.60098
23.98069,11.6482
24.01697,10.10124
24.05325,8.853068
24.08953,7.8304
24.12417,7.016224
24.1588,6.326639
24.19344,5.736222
24.22807,5.226567
24.26271,4.783179
24.29734,4.395286
24.3666,3.751958
24.43587,3.243593
24.50514,2.834626
24.57441,2.50048
24.64367,2.223982
24.70964,2.003033
24.77561,1.815081
24.84158,1.652947
24.90755,1.511655
24.97352,1.388046
25.03949,1.279455
25.17143,1.098403
25.30337,0.9543848
25.43531,0.8378393
25.56725,0.7421231
25.69918,0.6625736
25.83772,0.5934103
25.97625,0.5346428
26.11479,0.48418
26.25332,0.4407112
26.39186,0.4032493
26.53039,0.3705954
26.66893,0.3418945
26.80746,0.3166742
27.08453,0.2743266
27.3616,0.2404912
27.63867,0.2129686
27.91574,0.1902775
28.2192,0.1700755
28.52266,0.152901
28.82612,0.1387166
29.12958,0.1265255
29.43304,0.1160204
29.7365,0.1071289
30.34341,0.09263584
30.95033,0.08151605
31.55725,0.07276738
32.16417,0.06603232
32.77108,0.06029804
33.66826,0.05388923
34.56544,0.04912805
35.46262,0.04567126
35.91121,0.04447186
36.13551,0.04393834
36.3598,0.04389216
36.46535,0.04421549
36.5709,0.04505918
36.61214,0.04576848
36.65337,0.04708733
36.67399,0.04823714
36.6946,0.05001381
36.71522,0.05283245
36.73583,0.05733463
36.74614,0.06050052
36.75645,0.06446747
36.76676,0.06940554
36.77706,0.07549719
36.78737,0.0829579
36.79768,0.09199453
36.80799,0.1028185
36.81829,0.1156153
36.8286,0.1305814
36.83891,0.147834
36.84922,0.1674406
36.85952,0.1893677
36.88014,0.2397573
36.90075,0.2967572
36.92879,0.3773988
36.94281,0.4150279
36.95683,0.4481676
36.97002,0.4735004
36.98321,0.4917387
37.00225,0.5035455
37.0053,0.5037434
37.01597,0.5007112
37.02663,0.4920175
37.03918,0.4749923
37.05172,0.4514991
37.06598,0.418415
37.08024,0.3805033
37.10875,0.2987078
37.12586,0.2509401
37.14297,0.2072862
37.16008,0.169296
37.16864,0.1526624
37.17719,0.137663
37.18575,0.1242384
37.1943,0.112364
37.20286,0.1019302
37.21141,0.09286167
37.21997,0.08502483
37.22852,0.07831929
37.23707,0.0726148
37.24562,0.06779307
37.25418,0.06373663
37.26273,0.06034911
37.27984,0.05518495
37.29695,0.05164174
37.31405,0.0492166
37.33116,0.04754071
37.34827,0.04636119
37.38248,0.04486873
37.45547,0.04331459
37.60146,0.04214405
37.74744,0.04208758
37.83641,0.04303508
37.88089,0.04467919
37.90313,0.04636203
37.92537,0.04915546
37.93649,0.05116709
37.94761,0.05372539
37.95873,0.05695217
37.96985,0.06098266
37.98097,0.06596174
37.99209,0.07203811
38.00321,0.07935621
38.01433,0.08804593
38.02545,0.09821036
38.03657,0.1099122
38.04769,0.1231598
38.05881,0.1378937
38.08105,0.1711816
38.10329,0.2076257
38.13067,0.2516292
38.14436,0.2709368
38.15804,0.2870543
38.17058,0.2982558
38.18312,0.3054626
38.1976,0.3083457
38.21529,0.3037329
38.22626,0.2965542
38.23723,0.286384
38.26191,0.2546983
38.28658,0.2155588
38.32085,0.1598387
38.33799,0.1348845
38.35512,0.1131742
38.37226,0.09505738
38.38939,0.0805369
38.39796,0.07453153
38.40653,0.06929498
38.42366,0.06087844
38.4408,0.05474722
38.45793,0.05039151
38.47507,0.0473493
38.4922,0.04525011
38.50934,0.04380289
38.52647,0.04279805
38.56074,0.04156749
38.62655,0.04044034
38.69235,0.03984057
38.82395,0.03914119
39.08715,0.03855197
39.61355,0.03788774
40.05223,0.03787219
40.27157,0.03794454
40.4909,0.03856264
40.59509,0.03948843
40.64718,0.04052264
40.67323,0.04145444
40.69927,0.04298621
40.72532,0.0456305
40.73835,0.04762744
40.75137,0.05026762
40.7644,0.05374493
40.77742,0.05827932
40.79044,0.06413129
40.80346,0.07158473
40.81649,0.08094421
40.82951,0.09248545
40.84253,0.1064722
40.85555,0.123098
40.86858,0.1424731
40.8816,0.164528
40.89462,0.1890701
40.90764,0.2157038
40.94192,0.2908546
40.95906,0.3271801
40.97619,0.3593264
40.99058,0.3812798
41.00497,0.3972373
41.02035,0.406567
41.0295,0.4080427
41.04757,0.4018854
41.05931,0.3916875
41.07105,0.3770794
41.09452,0.3371531
41.11799,0.2880797
41.1576,0.2021842
41.17741,0.164158
41.18731,0.1472331
41.19721,0.131843
41.20712,0.1180141
41.21702,0.105764
41.22692,0.09502704
41.23682,0.0857202
41.24673,0.07773014
41.25663,0.0709522
41.26653,0.06524952
41.27643,0.06049257
41.2867,0.05642255
41.29697,0.05310233
41.30724,0.05041075
41.31751,0.04823963
41.33805,0.04509406
41.35858,0.04306754
41.37912,0.04174466
41.39966,0.04085669
41.44073,0.03977965
41.52288,0.03872868
41.60502,0.03819944
41.83974,0.03760199
42.07445,0.03747457
42.54388,0.0373428
43.52969,0.03793561
44.51549,0.0389329
45.50129,0.04035057
45.99419,0.04153546
46.24064,0.0424617
46.48709,0.04418745
46.59565,0.04590614
46.64993,0.04761193
46.67707,0.0490676
46.70421,0.05138724
46.73135,0.05529869
46.74492,0.05821823
46.75849,0.06206183
46.77206,0.06710505
46.78563,0.07367912
46.7992,0.08216983
46.81277,0.09301041
46.82634,0.1066668
46.83991,0.1236137
46.85348,0.1443015
46.86705,0.1691133
46.88062,0.198315
46.89419,0.2320012
46.90776,0.2700425
46.92132,0.3120071
46.96239,0.454461
46.98293,0.5259345
47.00346,0.5897312
47.01887,0.628885
47.03427,0.6579566
47.0504,0.6757015
47.0626,0.6797299
47.08052,0.6706469
47.10338,0.6346039
47.12624,0.5758571
47.14909,0.5019228
47.18194,0.3859306
47.19837,0.3298891
47.21479,0.2781044
47.23122,0.2318965
47.24764,0.1920589
47.26407,0.1587131
47.27228,0.1444197
47.28049,0.1316222
47.29121,0.1170265
47.30192,0.104642
47.31263,0.09422744
47.32334,0.0855509
47.33406,0.07837814
47.34477,0.07250552
47.35548,0.06772528
47.36619,0.06385665
47.37691,0.06073747
47.38762,0.05823529
47.40904,0.05462112
47.43047,0.05228745
47.45189,0.05075485
47.49474,0.04898291
47.53759,0.04803296
47.62328,0.04706771
47.8061,0.04644316
48.35458,0.04716348
48.90305,0.04889929
50,0.0534028
51.43967,0.06188774
52.15951,0.06761784
52.87934,0.07489308
53.59918,0.08429504
53.9591,0.09005257
54.31901,0.09677003
54.67893,0.1049367
55.03884,0.114248
55.39876,0.1259967
55.75867,0.1407384
56.01576,0.153766
56.27284,0.1696208
56.52992,0.1892891
56.787,0.2140876
56.91555,0.2288705
57.04409,0.246027
57.17263,0.2660186
57.30117,0.2894206
57.42971,0.3170875
57.55825,0.3501867
57.68679,0.390315
57.81533,0.4396175
57.9096,0.4832684
58.00386,0.5352453
58.09813,0.5982619
58.19239,0.6759433
58.28666,0.7738385
58.33379,0.8335727
58.38092,0.9046776
58.42805,0.9953918
58.45162,1.053194
58.47518,1.12374
58.49875,1.211796
58.52231,1.322954
58.54588,1.463482
58.56944,1.639046
58.59087,1.832725
58.61229,2.059575
58.63372,2.317479
58.65514,2.600062
58.69799,3.196011
58.74083,3.734532
58.77082,4.015617
58.7751,4.047358
58.77815,4.06863
58.7812,4.088775
58.7873,4.125678
58.7934,4.158083
58.79798,4.179492
58.80511,4.207951
58.82471,4.257705
58.84431,4.272473
58.87792,4.251454
58.90733,4.235529
58.93674,4.276542
58.96615,4.422551
58.99555,4.71788
59.01026,4.936828
59.02496,5.213559
59.03966,5.559265
59.05436,5.98922
59.06907,6.52523
59.08377,7.19659
59.09847,8.045423
59.11317,9.129276
59.12508,10.23262
59.13698,11.59366
59.14888,13.28042
59.16078,15.37585
59.17269,17.98341
59.18459,21.22003
59.19649,25.23093
59.20839,30.18253
59.2203,36.27022
59.2322,43.69595
59.2441,52.69584
59.256,63.51613
59.26791,76.42261
59.27981,91.64606
59.29171,109.4351
59.30361,130.0005
59.31342,149.1617
59.32322,170.3645
59.33302,193.6552
59.34282,219.02
59.35262,246.3974
59.36242,275.6731
59.38202,339.1743
59.39603,387.6414
59.41143,442.4804
59.42964,507.1469
59.46044,607.2466
59.47584,648.5807
59.49124,681.5226
59.50664,704.4973
59.52505,717.3389
59.53021,717.9439
59.53194,717.8499
59.5379,716.3859
59.54386,713.1653
59.55578,701.5659
59.56876,681.4864
59.58174,654.3333
59.6077,582.6944
59.63366,495.7589
59.6785,337.8905
59.70092,266.0783
59.71213,233.5085
59.72333,203.5146
59.73454,176.1692
59.74575,151.5418
59.75696,129.6012
59.76817,110.256
59.77938,93.36729
59.79059,78.76177
59.8018,66.24349
59.81301,55.60445
59.82422,46.63359
59.83543,39.1241
59.84664,32.87909
59.85785,27.71559
59.86906,23.46713
59.88027,19.98506
59.89148,17.13891
59.90268,14.81781
59.91271,13.1036
59.92274,11.67277
59.93277,10.47582
59.9428,9.471132
59.95283,8.624029
59.96286,7.905837
59.97289,7.293
59.98292,6.766289
60.00298,5.911763
60.02304,5.250045
60.0431,4.721408
60.06315,4.287452
60.08321,3.922615
60.10327,3.61045
60.14338,3.102062
60.1835,2.704485
60.22361,2.385639
60.26609,2.111162
60.30857,1.885878
60.35105,1.698465
60.39352,1.540752
60.436,1.40658
60.47847,1.29143
60.52095,1.191759
60.56342,1.104932
60.64838,0.961756
60.73333,0.849682
60.81828,0.7605011
60.90323,0.6885859
61.00707,0.6184734
61.1109,0.5630757
61.21473,0.5184856
61.31856,0.4821882
61.42239,0.4525644
61.52622,0.4283462
61.73388,0.392314
61.94154,0.3684631
62.1492,0.3534531
62.35686,0.3454484
62.56452,0.3422332
62.76275,0.3432055
62.96097,0.3476498
63.35742,0.3660784
63.75387,0.396774
64.15031,0.4408694
64.54676,0.5010432
64.74498,0.5385388
64.9432,0.5820535
65.14143,0.632812
65.33965,0.69197
65.53787,0.7608189
65.73609,0.8416683
65.94376,0.9441118
66.15142,1.068578
66.35908,1.221482
66.56674,1.412022
66.7744,1.653491
66.87823,1.79916
66.98206,1.965689
67.08589,2.157229
67.18972,2.378839
67.29355,2.636541
67.39738,2.938485
67.5201,3.369475
67.64281,3.906573
67.70417,4.225809
67.76552,4.586661
67.7962,4.785109
67.82688,4.997032
67.85756,5.223692
67.8729,5.342985
67.88823,5.466422
67.91183,5.665171
67.92363,5.768725
67.93543,5.875206
67.94723,5.984727
67.95903,6.097403
67.97083,6.21336
67.98262,6.332622
67.99737,6.486827
68.01211,6.646741
68.02037,6.739006
68.03453,6.901797
68.05105,7.099444
68.06757,7.305882
68.07701,7.427998
68.08645,7.553264
68.09589,7.681791
68.10533,7.813694
68.12421,8.088118
68.14309,8.37757
68.16315,8.702849
68.18321,9.04787
68.20327,9.414292
68.22332,9.803753
68.24338,10.21869
68.26344,10.66119
68.2835,11.13381
68.30355,11.63915
68.32951,12.34769
68.35547,13.12494
68.38143,13.98036
68.40739,14.92516
68.43335,15.97273
68.45931,17.13916
68.48527,18.44401
68.51122,19.91071
68.53482,21.41054
68.55842,23.09725
68.58202,25.00603
68.60561,27.18089
68.62921,29.68252
68.65281,32.589
68.67641,36.00891
68.68821,37.95699
68.7,40.09359
68.71298,42.70154
68.72596,45.62482
68.73894,48.92356
68.75192,52.67216
68.7649,56.96269
68.77788,61.90873
68.79086,67.65002
68.80383,74.35186
68.81681,82.23212
68.82979,91.53626
68.84277,102.563
68.85574,115.6538
68.86872,131.2395
68.8817,149.7832
68.89468,171.8191
68.90765,197.9187
68.91591,216.9599
68.92417,238.092
68.93243,261.4956
68.94069,287.3545
68.94895,315.8527
68.95721,347.172
68.97373,418.9658
68.99025,503.996
69.00677,603.2223
