Incident energy;Cross section
1.0E-5;50.27091
1.0625E-5;48.85757
1.125E-5;47.56608
1.1875E-5;46.38012
1.25E-5;45.28626
1.375E-5;43.33204
1.5E-5;41.6337
1.625E-5;40.14076
1.75E-5;38.81559
1.875E-5;37.62955
2.0E-5;36.56038
2.1875E-5;35.13825
2.375E-5;33.89475
2.5625E-5;32.79625
2.75E-5;31.81732
2.9375E-5;30.93835
3.125E-5;30.14393
3.3125E-5;29.42175
3.5E-5;28.76187
3.875E-5;27.59783
4.25E-5;26.60179
4.625E-5;25.73838
5.0E-5;24.98172
5.3125E-5;24.4186
5.625E-5;23.90734
5.9375E-5;23.44085
6.25E-5;23.01331
6.875E-5;22.25654
7.5E-5;21.60692
8.125E-5;21.04273
8.75E-5;20.54786
9.375E-5;20.11006
1.0E-4;19.71989
1.0625E-4;19.36988
1.125E-4;19.0541
1.1875E-4;18.76772
1.25E-4;18.50681
1.375E-4;18.0489
1.5E-4;17.66013
1.625E-4;17.32598
1.75E-4;17.03577
1.875E-4;16.78142
2.0E-4;16.55674
2.1875E-4;16.265
2.375E-4;16.01691
2.5625E-4;15.80346
2.75E-4;15.61796
2.9375E-4;15.45532
3.125E-4;15.31161
3.3125E-4;15.18374
3.5E-4;15.06926
3.875E-4;14.87295
4.25E-4;14.71079
4.625E-4;14.57466
5.0E-4;14.4588
5.3125E-4;14.37466
5.625E-4;14.29984
5.9375E-4;14.23286
6.25E-4;14.17257
6.875E-4;14.06839
7.5E-4;13.98155
8.125E-4;13.90806
8.75E-4;13.84506
9.375E-4;13.79045
0.001;13.74267
0.0010625;13.7005
0.001125;13.66302
0.0011875;13.62948
0.00125;13.59929
0.001375;13.54714
0.0015;13.50367
0.001625;13.46688
0.00175;13.43534
0.001875;13.408
0.002;13.38407
0.0021875;13.35328
0.002375;13.32735
0.0025625;13.3052
0.00275;13.28606
0.0029375;13.26935
0.003125;13.25464
0.0033125;13.24158
0.0035;13.22992
0.003875;13.20995
0.00425;13.19347
0.004625;13.17965
0.005;13.16787
0.0053125;13.15931
0.005625;13.15168
0.0059375;13.14485
0.00625;13.13868
0.006875;13.12799
0.0075;13.11904
0.008125;13.11142
0.00875;13.10486
0.009375;13.09913
0.01;13.09409
0.010625;13.08961
0.01125;13.0856
0.011875;13.08198
0.0125;13.07869
0.01375;13.07295
0.015;13.06807
0.01625;13.06387
0.0175;13.06018
0.01875;13.05692
0.02;13.054
0.021325;13.05121
0.02265;13.04868
0.023975;13.04637
0.0253;13.04424
0.02684375;13.04196
0.0283875;13.03985
0.02993125;13.0379
0.031475;13.03607
0.0345625;13.03273
0.03765;13.02972
0.0407375;13.02698
0.043825;13.02444
0.0469125;13.02206
0.05;13.01982
0.053125;13.01767
0.05625;13.01561
0.059375;13.01363
0.0625;13.01172
0.06875;13.00807
0.075;13.00461
0.08125;13.00128
0.0875;12.99807
0.09375;12.99496
0.1;12.99191
0.10625;12.98893
0.1125;12.98601
0.11875;12.98313
0.125;12.98029
0.1375;12.97472
0.15;12.96927
0.1625;12.96391
0.175;12.95863
0.1875;12.95342
0.2;12.94828
0.21875;12.94067
0.2375;12.93317
0.25625;12.92577
0.275;12.91846
0.29375;12.91123
0.3125;12.90408
0.33125;12.897
0.35;12.89
0.36875;12.88306
0.3875;12.87619
0.40625;12.86938
0.425;12.86263
0.5;12.83624
0.5625;12.81489
0.625;12.7941
0.75;12.75408
0.875;12.71598
1.0;12.6796
1.125;12.64479
1.25;12.61142
1.375;12.57939
1.5;12.54859
1.75;12.49036
2.0;12.43605
2.1875;12.39756
2.375;12.36082
2.5625;12.32566
2.75;12.29196
3.125;12.22831
3.5;12.16901
3.875;12.11339
4.25;12.06089
4.625;12.01105
5.0;11.9635
5.365991;11.91903
5.731982;11.87614
6.463963;11.79418
7.195944;11.71613
7.561935;11.6782
7.927925;11.64086
8.014522;11.63208
8.101118;11.62333
8.144416;11.61897
8.166065;11.61679
8.187714;11.61461
8.198539;11.61352
8.209363;11.61243
8.220188;11.61134
8.231012;11.61025
8.236425;11.60971
8.241837;11.60917
8.247249;11.60862
8.252661;11.60808
8.258074;11.60754
8.263486;11.60699
8.268898;11.60645
8.27431;11.60591
8.280437;11.60529
8.286564;11.60468
8.292691;11.60406
8.298818;11.60345
8.323326;11.60099
8.33313;11.60001
8.342933;11.59903
8.350667;11.59825
8.3584;11.59748
8.367683;11.59655
8.376965;11.59562
8.38333;11.59498
8.389695;11.59434
8.402425;11.59307
8.419929;11.59131
8.428681;11.59044
8.437432;11.58956
8.446184;11.58868
8.45056;11.58824
8.454935;11.58781
8.459311;11.58737
8.463687;11.58693
8.468063;11.58649
8.472438;11.58606
8.477212;11.58558
8.481986;11.5851
8.491533;11.58415
8.50108;11.58319
8.510627;11.58224
8.520175;11.58128
8.529722;11.58033
8.548816;11.57842
8.587005;11.57461
8.625194;11.5708
8.701572;11.56319
8.77795;11.55558
9.083463;11.52521
9.388975;11.49485
10.0;11.43407
10.77663;11.35579
11.79595;11.24916
12.30561;11.19401
12.56044;11.16544
12.68786;11.15106
12.81527;11.13647
12.87292;11.12979
12.90174;11.12644
12.91615;11.12476
12.93056;11.12308
12.94497;11.12139
12.95938;11.1197
12.96659;11.11886
12.97379;11.11802
12.981;11.11717
12.9882;11.11632
12.99541;11.11548
13.00261;11.11463
13.00982;11.11378
13.01702;11.11294
13.02423;11.11209
13.03143;11.11124
13.04584;11.10954
13.06708;11.10703
13.0777;11.10577
13.08831;11.10451
13.09741;11.10344
13.1065;11.10236
13.1187;11.10091
13.12816;11.09978
13.13761;11.09865
13.15103;11.09705
13.16445;11.09545
13.1829;11.09324
13.19212;11.09214
13.20134;11.09103
13.21057;11.08993
13.21979;11.08882
13.22901;11.08771
13.23823;11.0866
13.24494;11.08579
13.25165;11.08498
13.25836;11.08417
13.26507;11.08336
13.27849;11.08174
13.2919;11.08012
13.30532;11.07849
13.31873;11.07687
13.34556;11.0736
13.39923;11.06705
13.45289;11.06045
13.56022;11.04709
13.84197;11.01116
14.12371;10.97415
14.68719;10.89568
15.25067;10.81031
15.81415;10.71523
16.09589;10.66383
16.37763;10.60826
16.65937;10.54957
16.94111;10.48644
17.22285;10.417
17.50459;10.34271
17.78633;10.26099
18.06807;10.17126
18.30957;10.08539
18.55106;9.990365
18.79255;9.884319
19.03404;9.764872
19.27553;9.628816
19.51702;9.471945
19.63777;9.384719
19.75851;9.288875
19.87926;9.183884
20.0;9.068309
20.11217;8.949796
20.22434;8.818594
20.33651;8.672192
20.44868;8.507438
20.56085;8.320836
20.61694;8.217518
20.67302;8.106007
20.72911;7.985259
20.78519;7.854149
20.84127;7.711128
20.89735;7.554285
20.95344;7.381212
21.00952;7.189011
21.06561;6.973916
21.12169;6.731366
21.14974;6.597877
21.17778;6.45504
21.20582;6.301615
21.23386;6.136211
21.26191;5.95717
21.28995;5.762787
21.31799;5.550866
21.34603;5.318897
21.37408;5.063829
21.40212;4.782411
21.43016;4.470747
21.44418;4.302395
21.4582;4.125231
21.47223;3.939096
21.48625;3.744855
21.50027;3.544204
21.51429;3.341311
21.52831;3.144622
21.53532;3.053172
21.54233;2.97009
21.54934;2.899374
21.55635;2.846253
21.56336;2.817487
21.57037;2.821699
21.57673;2.863118
21.58308;2.950411
21.58944;3.095881
21.59579;3.313379
21.60215;3.620471
21.6085;4.035783
21.61485;4.582171
21.6212;5.285034
21.62756;6.174235
21.63391;7.278046
21.64027;8.633471
21.64662;10.27156
21.65298;12.23395
21.65933;14.55105
21.66568;17.26116
21.67203;20.39731
21.67685;23.08029
21.68167;26.03616
21.69131;32.7967
21.70095;40.7083
21.71058;49.73159
21.72022;59.78553
21.72986;70.68373
21.74914;93.91222
21.76842;116.5718
21.77806;126.6205
21.78769;135.2409
21.79815;142.5719
21.8086;147.4318
21.81034;147.9842
21.81538;149.1577
21.82041;149.6918
21.83047;148.8636
21.84241;144.7587
21.85434;137.6795
21.87344;121.7218
21.89253;102.7293
21.91004;85.09718
21.91879;76.78558
21.92754;69.01434
21.9363;61.87442
21.94505;55.43848
21.9538;49.71708
21.96255;44.69871
21.97131;40.3438
21.98006;36.61086
21.98881;33.43315
21.99319;32.03043
21.99756;30.74477
22.00194;29.56205
22.00632;28.47728
22.0107;27.48267
22.01507;26.57276
22.02382;24.97055
22.03257;23.61921
22.04133;22.47295
22.05008;21.49658
22.05883;20.65727
22.06758;19.92928
22.07634;19.29114
22.08509;18.72763
22.09384;18.22474
22.10259;17.77197
22.11294;17.28987
22.12328;16.85606
22.14397;16.10077
22.16466;15.4602
22.18535;14.90546
22.20604;14.41728
22.22673;13.98207
22.24742;13.58982
22.2681;13.23309
22.28879;12.90556
22.30948;12.60265
22.35085;12.05588
22.39223;11.56867
22.4336;11.1245
22.48453;10.61902
22.53545;10.14366
22.59275;9.628265
22.65004;9.118605
22.70733;8.60064
22.76462;8.060957
22.79327;7.778637
22.82191;7.485705
22.85056;7.179963
22.8792;6.859438
22.90785;6.521491
22.93649;6.163745
22.96514;5.783204
22.99378;5.377384
23.02243;4.943492
23.05107;4.480115
23.07972;3.987411
23.09404;3.731759
23.10836;3.472101
23.12269;3.211773
23.13701;2.957466
23.15133;2.720251
23.16565;2.519952
23.17998;2.390957
23.18714;2.370326
23.1943;2.392156
23.20146;2.469935
23.20862;2.620792
23.21578;2.866275
23.21936;3.032657
23.22294;3.233225
23.22653;3.473043
23.23011;3.755576
23.23369;4.086708
23.23727;4.472225
23.24085;4.918456
23.24443;5.432301
23.24801;6.021256
23.25159;6.693437
23.25518;7.459867
23.25876;8.325707
23.26234;9.303025
23.26592;10.40255
23.2695;11.63567
23.27308;13.01441
23.27666;14.55142
23.28024;16.25992
23.28581;19.29169
23.29138;22.82607
23.29576;25.99493
23.30013;29.52855
23.30451;33.47104
23.30888;37.83195
23.31445;44.05168
23.32002;51.06132
23.32559;58.90886
23.33116;67.63561
23.33992;83.21396
23.34867;101.093
23.35743;121.2989
23.36618;143.6688
23.38368;193.9131
23.40118;248.5194
23.4163;295.337
23.43142;337.6848
23.44017;358.5713
23.44892;375.9235
23.45816;389.7692
23.4674;398.5206
23.4693;399.6583
23.47469;401.6336
23.48008;401.7529
23.49085;396.5297
23.50487;379.5788
23.51889;352.985
23.53126;323.6374
23.54363;290.9206
23.56837;223.2679
23.5791;195.6334
23.58982;170.1518
23.60054;147.2366
23.61126;127.1025
23.61662;118.0923
23.62198;109.7739
23.62734;102.1276
23.6327;95.12768
23.63806;88.74311
23.64342;82.93933
23.64878;77.67927
23.65414;72.92441
23.66321;65.91981
23.67228;60.06411
23.68135;55.18145
23.69042;51.11154
23.69949;47.71272
23.70856;44.86286
23.71763;42.45898
23.7267;40.41585
23.73577;38.66398
23.74484;37.14745
23.75391;35.82172
23.76298;34.65155
23.77205;33.60919
23.78112;32.67278
23.79926;31.05263
23.81741;29.6911
23.83555;28.52561
23.85369;27.51231
23.87183;26.62096
23.88998;25.82908
23.90812;25.12083
23.92626;24.48277
23.9444;23.90465
23.98069;22.89633
24.01697;22.04631
24.05325;21.31937
24.08953;20.69019
24.12417;20.16323
24.1588;19.6955
24.19344;19.27685
24.22807;18.89986
24.26271;18.55831
24.29734;18.2476
24.3666;17.70304
24.43587;17.2411
24.50514;16.84398
24.57441;16.49862
24.64367;16.19546
24.70964;15.93944
24.77561;15.71016
24.84158;15.50275
24.90755;15.31381
24.97352;15.14117
25.03949;14.98291
25.17143;14.70278
25.30337;14.46219
25.43531;14.25304
25.56725;14.06928
25.69918;13.90648
25.83772;13.75533
25.97625;13.61926
26.11479;13.49596
26.25332;13.38386
26.39186;13.28184
26.53039;13.18832
26.66893;13.10205
26.80746;13.02247
27.08453;12.87966
27.3616;12.75513
27.63867;12.64516
27.91574;12.54708
28.2192;12.45191
28.52266;12.36515
28.82612;12.28725
29.12958;12.21558
29.43304;12.14938
29.7365;12.0887
30.34341;11.97939
30.95033;11.88319
31.55725;11.79692
32.16417;11.71966
32.77108;11.6471
33.66826;11.54994
34.56544;11.46109
35.46262;11.37833
35.91121;11.33881
36.13551;11.31912
36.3598;11.29984
36.46535;11.29087
36.5709;11.28194
36.61214;11.27846
36.65337;11.27499
36.67399;11.27326
36.6946;11.27153
36.71522;11.2698
36.73583;11.26807
36.74614;11.26721
36.75645;11.26634
36.76676;11.26548
36.77706;11.26462
36.78737;11.26376
36.79768;11.2629
36.80799;11.26203
36.81829;11.26118
36.8286;11.26032
36.83891;11.25946
36.84922;11.2586
36.85952;11.25774
36.88014;11.25602
36.90075;11.25431
36.92879;11.25198
36.94281;11.25082
36.95683;11.24966
36.97002;11.24856
36.98321;11.24747
37.00225;11.24589
37.0053;11.24564
37.01597;11.24475
37.02663;11.24387
37.03918;11.24283
37.05172;11.24179
37.06598;11.24061
37.08024;11.23943
37.10875;11.23707
37.12586;11.23566
37.14297;11.23425
37.16008;11.23284
37.16864;11.23213
37.17719;11.23143
37.18575;11.23072
37.1943;11.23002
37.20286;11.22931
37.21141;11.22861
37.21997;11.2279
37.22852;11.2272
37.23707;11.2265
37.24562;11.22579
37.25418;11.22509
37.26273;11.22439
37.27984;11.22299
37.29695;11.22158
37.31405;11.22018
37.33116;11.21878
37.34827;11.21738
37.38248;11.21458
37.45547;11.20862
37.60146;11.19674
37.74744;11.18491
37.83641;11.17772
37.88089;11.17413
37.90313;11.17234
37.92537;11.17055
37.93649;11.16965
37.94761;11.16876
37.95873;11.16786
37.96985;11.16697
37.98097;11.16608
37.99209;11.16518
38.00321;11.16429
38.01433;11.1634
38.02545;11.1625
38.03657;11.16161
38.04769;11.16072
38.05881;11.15983
38.08105;11.15804
38.10329;11.15626
38.13067;11.15407
38.14436;11.15297
38.15804;11.15188
38.17058;11.15087
38.18312;11.14987
38.1976;11.14871
38.21529;11.1473
38.22626;11.14642
38.23723;11.14555
38.26191;11.14357
38.28658;11.1416
38.32085;11.13887
38.33799;11.1375
38.35512;11.13614
38.37226;11.13477
38.38939;11.13341
38.39796;11.13272
38.40653;11.13204
38.42366;11.13068
38.4408;11.12931
38.45793;11.12795
38.47507;11.12659
38.4922;11.12523
38.50934;11.12386
38.52647;11.1225
38.56074;11.11978
38.62655;11.11456
38.69235;11.10935
38.82395;11.09893
39.08715;11.0782
39.61355;11.03682
40.05223;11.00245
40.27157;10.98527
40.4909;10.96809
40.59509;10.95993
40.64718;10.95584
40.67323;10.9538
40.69927;10.95176
40.72532;10.94972
40.73835;10.9487
40.75137;10.94768
40.7644;10.94666
40.77742;10.94563
40.79044;10.94461
40.80346;10.94359
40.81649;10.94257
40.82951;10.94155
40.84253;10.94053
40.85555;10.93951
40.86858;10.93849
40.8816;10.93747
40.89462;10.93644
40.90764;10.93542
40.94192;10.93274
40.95906;10.93139
40.97619;10.93005
40.99058;10.92892
41.00497;10.92779
41.02035;10.92658
41.0295;10.92586
41.04757;10.92444
41.05931;10.92352
41.07105;10.92259
41.09452;10.92075
41.11799;10.9189
41.1576;10.91578
41.17741;10.91422
41.18731;10.91344
41.19721;10.91266
41.20712;10.91188
41.21702;10.9111
41.22692;10.91032
41.23682;10.90954
41.24673;10.90876
41.25663;10.90798
41.26653;10.9072
41.27643;10.90642
41.2867;10.90561
41.29697;10.9048
41.30724;10.90399
41.31751;10.90318
41.33805;10.90156
41.35858;10.89994
41.37912;10.89833
41.39966;10.89671
41.44073;10.89347
41.52288;10.88698
41.60502;10.88048
41.83974;10.86186
42.07445;10.84313
42.54388;10.80555
43.52969;10.72467
44.51549;10.64155
45.50129;10.55599
45.99419;10.51148
46.24064;10.48872
46.48709;10.46568
46.59565;10.45541
46.64993;10.45025
46.67707;10.44767
46.70421;10.44508
46.73135;10.44248
46.74492;10.44118
46.75849;10.43988
46.77206;10.43858
46.78563;10.43728
46.7992;10.43598
46.81277;10.43468
46.82634;10.43337
46.83991;10.43207
46.85348;10.43076
46.86705;10.42945
46.88062;10.42814
46.89419;10.42683
46.90776;10.42552
46.92132;10.42421
46.96239;10.42024
46.98293;10.41825
47.00346;10.41625
47.01887;10.41476
47.03427;10.41326
47.0504;10.41169
47.0626;10.41049
47.08052;10.40874
47.10338;10.40651
47.12624;10.40426
47.14909;10.40202
47.18194;10.39878
47.19837;10.39716
47.21479;10.39554
47.23122;10.39392
47.24764;10.3923
47.26407;10.39067
47.27228;10.38986
47.28049;10.38905
47.29121;10.38798
47.30192;10.38692
47.31263;10.38586
47.32334;10.38479
47.33406;10.38373
47.34477;10.38266
47.35548;10.3816
47.36619;10.38053
47.37691;10.37946
47.38762;10.37839
47.40904;10.37626
47.43047;10.37411
47.45189;10.37197
47.49474;10.36767
47.53759;10.36335
47.62328;10.35469
47.8061;10.33601
48.35458;10.27851
48.90305;10.21814
50.0;10.08977
51.43967;9.898368
52.15951;9.790189
52.87934;9.670524
53.59918;9.536849
53.9591;9.463821
54.31901;9.385588
54.67893;9.300352
55.03884;9.209964
55.39876;9.109604
55.75867;8.998416
56.01576;8.910879
56.27284;8.815063
56.52992;8.709134
56.787;8.590923
56.91555;8.526598
57.04409;8.457458
57.17263;8.382927
57.30117;8.302363
57.42971;8.214784
57.55825;8.118926
57.68679;8.01319
57.81533;7.895626
57.9096;7.800521
58.00386;7.696367
58.09813;7.581186
58.19239;7.452755
58.28666;7.308348
58.33379;7.229098
58.38092;7.144439
58.42805;7.053724
58.45162;7.005851
58.47518;6.956187
58.49875;6.904568
58.52231;6.850909
58.54588;6.795021
58.56944;6.736793
58.59087;6.681635
58.61229;6.624268
58.63372;6.564483
58.65514;6.502169
58.69799;6.369079
58.74083;6.223325
58.77082;6.112649
58.7751;6.096218
58.77815;6.084408
58.7812;6.072512
58.7873;6.04846
58.7934;6.024054
58.79798;6.005492
58.80511;5.976182
58.82471;5.892902
58.84431;5.805411
58.87792;5.644602
58.90733;5.491433
58.93674;5.325145
58.96615;5.144273
58.99555;4.94773
59.01026;4.843422
59.02496;4.735483
59.03966;4.624421
59.05436;4.511312
59.06907;4.397902
59.08377;4.287265
59.09847;4.183807
59.11317;4.094195
59.12508;4.038241
59.13698;4.004604
59.14888;4.00224
59.16078;4.042653
59.17269;4.140403
59.18459;4.313183
59.19649;4.582718
59.20839;4.974852
59.2203;5.520374
59.2322;6.253113
59.2441;7.212461
59.256;8.441203
59.26791;9.98649
59.27981;11.89312
59.29171;14.20953
59.30361;16.98081
59.31342;19.63615
59.32322;22.64368
59.33302;26.01997
59.34282;29.7732
59.35262;33.90451
59.36242;38.40692
59.38202;48.45109
59.39603;56.36388
59.41143;65.58022
59.42964;76.84663
59.46044;95.43551
59.47584;103.7889
59.49124;111.0554
59.50664;116.9282
59.52505;121.7778
59.53021;122.6745
59.53194;122.9282
59.5379;123.6196
59.54386;124.0261
59.55578;123.9843
59.56876;122.6674
59.58174;120.0952
59.6077;111.6701
59.63366;99.97172
59.6785;76.47751
59.70092;65.02003
59.71213;59.66079
59.72333;54.62601
59.73454;49.94307
59.74575;45.63891
59.75696;41.72309
59.76817;38.1942
59.77938;35.04169
59.79059;32.24781
59.8018;29.78955
59.81301;27.64029
59.82422;25.77142
59.83543;24.15363
59.84664;22.758
59.85785;21.55679
59.86906;20.52408
59.88027;19.63612
59.89148;18.87157
59.90268;18.21208
59.91271;17.69653
59.92274;17.24122
59.93277;16.83727
59.9428;16.47707
59.95283;16.15412
59.96286;15.8629
59.97289;15.59877
59.98292;15.35783
60.00298;14.93301
60.02304;14.56828
60.0431;14.24958
60.06315;13.96721
60.08321;13.71386
60.10327;13.48457
60.14338;13.0838
60.1835;12.74321
60.22361;12.44913
60.26609;12.17764
60.30857;11.93921
60.35105;11.72766
60.39352;11.53832
60.436;11.3674
60.47847;11.21207
60.52095;11.06996
60.56342;10.93926
60.64838;10.70626
60.73333;10.50389
60.81828;10.3255
60.90323;10.16625
61.00707;9.992413
61.1109;9.836685
61.21473;9.694868
61.31856;9.564142
61.42239;9.442597
61.52622;9.328634
61.73388;9.118294
61.94154;8.924967
62.1492;8.743091
62.35686;8.568827
62.56452;8.39839
62.76275;8.237389
62.96097;8.076366
63.35742;7.748608
63.75387;7.404656
64.15031;7.034756
64.54676;6.629048
64.74498;6.409409
64.9432;6.176496
65.14143;5.928311
65.33965;5.663468
65.53787;5.380486
65.73609;5.077072
65.94376;4.731752
66.15142;4.356606
66.35908;3.948396
66.56674;3.503764
66.7744;3.019965
66.87823;2.762955
66.98206;2.496045
67.08589;2.219801
67.18972;1.935342
67.29355;1.64458
67.39738;1.350625
67.5201;1.006027
67.64281;0.6776984
67.70417;0.5263987
67.76552;0.3891224
67.7962;0.3274395
67.82688;0.2715246
67.85756;0.2223794
67.8729;0.2006994
67.88823;0.18117
67.91183;0.1556812
67.92363;0.1452019
67.93543;0.136356
67.94723;0.1292429
67.95903;0.1239681
67.97083;0.1206433
67.98262;0.1193871
67.99737;0.1209153
68.01211;0.1261301
68.02037;0.1307687
68.03453;0.1417724
68.05105;0.1598125
68.06757;0.1839183
68.07701;0.2006181
68.08645;0.2195764
68.09589;0.2409043
68.10533;0.2647191
68.12421;0.3203096
68.14309;0.3874168
68.16315;0.472669
68.18321;0.5738598
68.20327;0.6927802
68.22332;0.8313734
68.24338;0.992054
68.26344;1.177336
68.2835;1.390144
68.30355;1.633678
68.32951;2.001044
68.35547;2.436137
68.38143;2.950512
68.40739;3.558116
68.43335;4.275896
68.45931;5.124624
68.48527;6.130001
68.51122;7.323701
68.53482;8.60725
68.55842;10.11941
68.58202;11.91006
68.60561;14.04329
68.62921;16.6079
68.65281;19.72238
68.67641;23.5547
68.68821;25.81196
68.7;28.34515
