Incident energy;Cross section
1.0E-5;134.5941
1.0625E-5;130.5755
1.125E-5;126.8966
1.1875E-5;123.5121
1.25E-5;120.3847
1.375E-5;114.7823
1.5E-5;109.8958
1.625E-5;105.5844
1.75E-5;101.7437
1.875E-5;98.29382
2.0E-5;95.17261
2.1875E-5;91.00246
2.375E-5;87.33644
2.5625E-5;84.08055
2.75E-5;81.1636
2.9375E-5;78.53059
3.125E-5;76.13826
3.3125E-5;73.95205
3.5E-5;71.94395
3.875E-5;68.37428
4.25E-5;65.28817
4.625E-5;62.58545
5.0E-5;60.1928
5.3125E-5;58.39563
5.625E-5;56.75038
5.9375E-5;55.2368
6.25E-5;53.8382
6.875E-5;51.33277
7.5E-5;49.14744
8.125E-5;47.21938
8.75E-5;45.50179
9.375E-5;43.95895
1.0E-4;42.56311
1.0625E-4;41.29233
1.125E-4;40.12897
1.1875E-4;39.05871
1.25E-4;38.06976
1.375E-4;36.29816
1.5E-4;34.7529
1.625E-4;33.38956
1.75E-4;32.17504
1.875E-4;31.0841
2.0E-4;30.09709
2.1875E-4;28.77839
2.375E-4;27.61911
2.5625E-4;26.58951
2.75E-4;25.6671
2.9375E-4;24.83448
3.125E-4;24.07796
3.3125E-4;23.38662
3.5E-4;22.75161
3.875E-4;21.62278
4.25E-4;20.64687
4.625E-4;19.7922
5.0E-4;19.03558
5.3125E-4;18.46727
5.625E-4;17.947
5.9375E-4;17.46837
6.25E-4;17.0261
6.875E-4;16.23384
7.5E-4;15.54281
8.125E-4;14.93314
8.75E-4;14.39003
9.375E-4;13.9022
0.001;13.46085
0.0010625;13.05905
0.001125;12.69122
0.0011875;12.35283
0.00125;12.04015
0.001375;11.48003
0.0015;10.99147
0.001625;10.56042
0.00175;10.17642
0.001875;9.831484
0.002;9.519411
0.0021875;9.102466
0.002375;8.735943
0.0025625;8.410449
0.00275;8.118868
0.0029375;7.855698
0.003125;7.616602
0.0033125;7.398113
0.0035;7.197422
0.003875;6.840624
0.00425;6.532086
0.004625;6.261836
0.005;6.0226
0.0053125;5.842944
0.005625;5.678521
0.0059375;5.527294
0.00625;5.387578
0.006875;5.137289
0.0075;4.918902
0.008125;4.726149
0.00875;4.554402
0.009375;4.400148
0.01;4.260645
0.010625;4.133717
0.01125;4.017603
0.011875;3.910846
0.0125;3.812231
0.01375;3.635521
0.015;3.481223
0.01625;3.344992
0.0175;3.223626
0.01875;3.114643
0.02;3.016081
0.021325;2.921249
0.02265;2.834898
0.023975;2.75586
0.0253;2.683199
0.02684375;2.605552
0.0283875;2.534423
0.031475;2.408044
0.0345625;2.298673
0.03765;2.203017
0.0407375;2.118508
0.043825;2.043145
0.0469125;1.975394
0.05;1.914056
0.053125;1.857533
0.05625;1.805836
0.059375;1.758388
0.0625;1.714693
0.06875;1.636304
0.075;1.567695
0.08125;1.50721
0.0875;1.45339
0.09375;1.405099
0.1;1.361457
0.10625;1.321767
0.1125;1.285472
0.11875;1.252156
0.125;1.221572
0.1375;1.16668
0.15;1.118662
0.1625;1.076395
0.175;1.03883
0.1875;1.00517
0.2;0.9749021
0.21875;0.9345231
0.2375;0.8990365
0.25625;0.8676422
0.275;0.839628
0.29375;0.8144438
0.3125;0.7916573
0.33125;0.7709251
0.35;0.7520886
0.3875;0.7187118
0.425;0.6900089
0.5;0.6434337
0.625;0.5870707
0.75;0.5473229
0.875;0.5182326
1.0;0.4963903
1.25;0.4671605
1.5;0.4510547
1.75;0.4441452
2.0;0.4444778
2.299529;0.4531728
2.599058;0.4708063
2.898587;0.4982471
3.198115;0.5374554
3.483604;0.5889364
3.769092;0.6592658
3.911837;0.7032132
4.054581;0.7566337
4.197325;0.8254802
4.268697;0.872399
4.28654;0.8916846
4.304383;0.9215318
4.313305;0.9448008
4.322226;0.9780235
4.331148;1.026037
4.340069;1.094363
4.34709;1.165665
4.35411;1.253776
4.36815;1.474613
4.385003;1.761425
4.393429;1.874148
4.401855;1.942666
4.40748;1.957996
4.413131;1.947503
4.418782;1.912251
4.430084;1.781593
4.445978;1.53168
4.459602;1.333214
4.466414;1.254142
4.473225;1.190657
4.480037;1.141951
4.486849;1.106141
4.500472;1.063725
4.514096;1.045922
4.527719;1.040794
4.557237;1.047423
4.586755;1.063418
4.64579;1.105309
4.76386;1.213754
4.88193;1.344375
5.0;1.503695
5.103887;1.675453
5.207773;1.885595
5.311659;2.145341
5.415545;2.471642
5.519432;2.885206
5.571375;3.135426
5.623318;3.426322
5.675261;3.763805
5.727204;4.158111
5.779147;4.622858
5.83109;5.176032
5.879787;5.796317
5.928484;6.542379
5.977181;7.450168
6.025877;8.564676
6.074574;9.959311
6.098923;10.79761
6.123271;11.75244
6.14762;12.84534
6.171968;14.10388
6.196316;15.56361
6.220664;17.27034
6.246636;19.43075
6.272608;22.03673
6.29858;25.219
6.324551;29.16033
6.350523;34.13169
6.363509;37.12559
6.376494;40.54743
6.38948;44.48584
6.402466;49.05204
6.415452;54.38969
6.428437;60.6875
6.438177;66.19219
6.447916;72.52017
6.457655;79.85615
6.467394;88.44394
6.47267;93.73152
6.477945;99.54736
6.483221;105.975
6.488496;113.1117
6.491134;116.9847
6.493772;121.0839
6.49641;125.4299
6.499047;130.0439
6.501685;134.9555
6.504323;140.1927
6.506961;145.789
6.509598;151.7803
6.51183;157.1939
6.514062;162.9529
6.516294;169.0907
6.518526;175.6448
6.52157;185.3308
6.524613;195.9878
6.527657;207.7648
6.5307;220.8195
6.532932;231.3199
6.535164;242.6985
6.537396;255.0513
6.539628;268.4847
6.54186;283.1166
6.544092;299.0773
6.546324;316.5101
6.548556;335.5728
6.550585;354.4608
6.552614;374.9788
6.554643;397.2788
6.556672;421.5239
6.558701;447.889
6.56073;476.5607
6.562759;507.7372
6.564788;541.6281
6.566817;578.4542
6.568846;618.4466
6.570875;661.8462
6.572904;708.9024
6.576962;815.0169
6.58102;938.8996
6.583252;1015.385
6.585484;1098.241
6.589948;1284.396
6.594412;1499.827
6.598875;1746.464
6.603339;2025.695
6.607803;2337.804
6.612267;2681.943
6.61673;3055.79
6.622412;3568.693
6.628093;4111.851
6.639456;5222.158
6.648384;6026.259
6.657311;6672.209
6.665796;7065.956
6.67428;7196.735
6.675793;7190.68
6.680827;7106.674
6.685861;6927.968
6.690895;6662.444
6.695928;6321.531
6.70643;5430.594
6.716932;4416.825
6.727435;3415.878
6.732686;2953.475
6.737937;2528.27
6.743188;2145.354
6.748439;1807.051
6.75369;1513.342
6.758941;1262.363
6.763477;1077.528
6.768012;919.6684
6.772547;785.9161
6.777082;673.3706
6.781617;579.1924
6.786152;500.7034
6.790687;435.453
6.795222;381.2555
6.799757;336.2036
6.804292;298.6641
6.808827;267.2616
6.813362;240.8538
6.817897;218.5037
6.822432;199.45
6.826967;183.0796
6.831502;168.9014
6.836276;155.9147
6.84105;144.5614
6.850597;125.6756
6.860145;110.5993
6.869692;98.28875
6.880195;87.12115
6.890697;77.84641
6.901199;70.03479
6.911701;63.37948
6.922204;57.65354
6.932706;52.68708
6.943208;48.34768
6.95371;44.53193
6.974715;38.1576
6.995719;33.07578
7.016723;28.95619
7.037727;25.56925
7.055868;23.10627
7.074008;20.98749
7.092148;19.15046
7.110288;17.54573
7.128429;16.13429
7.146569;14.88586
7.182849;12.78624
7.21913;11.10188
7.25541;9.730923
7.29169;8.600174
7.32797;7.656615
7.36616;6.822759
7.40435;6.119175
7.44254;5.521108
7.48073;5.009845
7.51892;4.568216
7.55711;4.183701
7.5953;3.85537
7.633489;3.586975
7.656403;3.443707
7.67529;3.324222
7.704614;3.128378
7.739633;2.898889
7.774651;2.701945
7.844687;2.385742
7.914724;2.127391
7.98476;1.910756
8.054797;1.727098
8.124833;1.570049
8.194869;1.434734
8.264905;1.317356
8.355275;1.187742
8.445645;1.079834
8.536015;0.9859817
8.626384;0.9054084
8.716754;0.8349738
8.807123;0.774257
8.987862;0.6739962
9.168601;0.5962343
9.34934;0.5350803
9.530079;0.486886
9.710818;0.450489
9.819262;0.4354016
9.927705;0.4294638
9.963853;0.4322048
10.0;0.4399327
10.02141;0.4489379
10.04281;0.4644605
10.05352;0.4765742
10.06422;0.4935619
10.07492;0.5180789
10.08562;0.5542655
10.09142;0.5808608
10.09722;0.6139705
10.10302;0.6551469
10.10881;0.7061007
10.11461;0.7690593
10.12041;0.8462101
10.12621;0.939968
10.132;1.052586
10.1378;1.186829
10.1436;1.344642
10.1494;1.527686
10.15519;1.736547
10.16099;1.971994
10.16678;2.232122
10.17837;2.816978
10.19443;3.701848
10.20246;4.131529
10.21048;4.519236
10.22009;4.893999
10.2297;5.135602
10.2395;5.218468
10.24926;5.127837
10.25902;4.874648
10.27135;4.366722
10.28367;3.726662
10.29806;2.93164
10.30525;2.552281
10.31244;2.200369
10.31963;1.883276
10.32682;1.605024
10.33401;1.366697
10.3412;1.167018
10.34583;1.057556
10.35045;0.9620537
10.35507;0.8791053
10.35969;0.8074991
10.36431;0.7460146
10.36893;0.6934607
10.37355;0.6487044
10.37817;0.6106918
10.38742;0.5510941
10.39666;0.5082859
10.4059;0.4772257
10.41514;0.454295
10.43466;0.4221345
10.45417;0.4020226
10.4932;0.3774308
10.53223;0.3622636
10.57125;0.3515658
10.64931;0.3369226
10.72736;0.3269043
10.88347;0.3131456
11.03958;0.3070926
11.10531;0.3105573
11.13818;0.3193179
11.15461;0.3296316
11.17104;0.348731
11.18337;0.3727374
11.19569;0.4091311
11.20186;0.4333414
11.20802;0.4621909
11.21418;0.4961674
11.22034;0.5356136
11.23267;0.6315167
11.24499;0.7483595
11.26964;1.015734
11.283;1.149176
11.29635;1.248036
11.30503;1.285255
11.3137;1.297387
11.32335;1.280328
11.333;1.232796
11.347;1.119649
11.36099;0.9739449
11.38398;0.7252314
11.39548;0.6176846
11.40697;0.5285834
11.41847;0.4587075
11.42996;0.4066207
11.44146;0.3692891
11.45295;0.3434127
11.46695;0.3228122
11.48094;0.3100306
11.50893;0.2965559
11.56491;0.2858737
11.67686;0.277317
11.90077;0.2700273
12.34858;0.2637552
12.89236;0.2647934
13.43613;0.2732246
13.97991;0.2888888
14.52368;0.3126555
14.79557;0.3278971
15.06746;0.3464401
15.33935;0.3673483
15.61123;0.3920697
15.88312;0.4218998
16.15501;0.4573672
16.4269;0.4998195
16.69878;0.5510659
16.95468;0.6095096
17.21057;0.6807076
17.46647;0.7685812
17.72236;0.8787032
17.97826;1.018084
18.10621;1.102201
18.23415;1.199687
18.3621;1.312421
18.49004;1.443739
18.61799;1.598025
18.74593;1.781009
18.90587;2.062209
18.98584;2.230692
19.0658;2.422684
19.14577;2.643019
19.22573;2.897682
19.3057;3.209462
19.34568;3.428283
19.36567;3.578652
19.38566;3.774647
19.41615;4.191801
19.44664;4.755082
19.47713;5.374549
19.50761;5.867686
19.5249;6.024505
19.5507;6.065053
19.57244;5.954883
19.59418;5.783214
19.62317;5.579934
19.65215;5.500322
19.6739;5.536061
19.69564;5.640239
19.73912;5.985075
19.7826;6.437114
19.82608;6.964998
19.86956;7.569533
19.91304;8.261821
19.95652;9.057869
20.0;9.978337
20.05347;11.32042
20.10693;12.95784
20.13951;14.1411
20.1558;14.79648
20.17209;15.50009
20.18838;16.2569
20.19653;16.65721
20.20467;17.07246
20.21282;17.50446
20.22096;17.95303
20.22911;18.42018
20.23725;18.90575
20.24435;19.34559
20.25145;19.80141
20.25855;20.27399
20.26565;20.76418
20.27109;21.15223
20.27652;21.55081
20.28362;22.08968
20.29071;22.64878
20.2974;23.19658
20.30408;23.76419
20.31076;24.35348
20.31744;24.96558
20.32454;25.64256
20.33164;26.34825
20.33874;27.08433
20.34584;27.85263
20.35294;28.65509
20.36004;29.49381
20.36714;30.37106
20.37424;31.28931
20.38427;32.66155
20.39429;34.12771
20.40432;35.70004
20.41434;37.3859
20.42437;39.2006
20.43439;41.15405
20.44442;43.26569
20.45444;45.5491
20.46363;47.81369
20.47282;50.26005
20.48201;52.90934
20.4912;55.7862
20.50039;58.9194
20.50958;62.34301
20.51877;66.09764
20.52795;70.22777
20.53714;74.80247
20.54633;79.89212
20.55552;85.59076
20.56471;92.01856
20.5739;99.33118
20.58309;107.7326
20.59228;117.4927
20.60146;128.9567
20.60731;137.3686
20.61316;146.8216
20.61901;157.5013
20.62485;169.607
20.6307;183.4431
20.63655;199.302
20.6424;217.5507
20.64824;238.5802
20.65409;262.9606
20.65994;291.2335
20.66579;324.0558
20.67163;362.1004
20.67748;406.3283
20.68333;457.5994
20.68918;516.9187
20.69502;585.2428
20.69962;646.2101
20.70421;713.9519
20.70881;789.351
20.7134;872.6673
20.718;964.8449
20.72259;1066.042
20.72719;1177.229
20.73178;1298.398
20.74097;1573.283
20.75016;1892.958
20.75935;2257.855
20.76853;2665.579
20.77939;3197.05
20.79025;3768.846
20.81197;4950.037
20.82784;5742.447
20.84371;6370.171
20.85468;6663.369
20.86565;6817.937
20.8718;6839.559
20.88323;6753.831
20.89466;6511.166
20.91079;5938.685
20.92692;5171.19
20.95273;3779.311
20.96563;3105.606
20.97853;2492.045
20.98983;2019.628
21.00112;1614.664
21.00677;1437.404
21.01241;1276.901
21.01806;1131.958
21.0237;1002.289
21.02935;886.5101
21.03499;784.0203
21.04064;693.3962
21.04628;613.8842
21.05193;544.1359
21.05757;483.3662
21.06322;430.3743
21.06886;384.4259
21.0737;349.8818
21.07854;319.3275
21.08338;292.3089
21.08822;268.4126
21.09306;247.2648
21.0979;228.5298
21.10757;197.1624
21.11725;172.239
21.12693;152.243
21.13661;135.9923
21.14628;122.6116
21.15596;111.4121
21.16564;101.9185
21.17532;93.76696
21.18499;86.69366
21.20435;74.98289
21.2237;65.68598
21.24145;58.69271
21.25919;52.817
21.27693;47.81628
21.29467;43.51676
21.31242;39.78628
21.33016;36.52911
21.36564;31.13167
21.40113;26.86633
21.43661;23.43534
21.4721;20.63116
21.50758;18.31043
21.5592;15.58549
21.59469;14.05482
21.63017;12.7408
21.66566;11.60279
21.70114;10.61119
21.73663;9.741803
21.77211;8.976044
21.84307;7.694768
21.91404;6.671931
21.98501;5.842431
22.05598;5.160391
22.12694;4.592885
22.18501;4.196513
22.24308;3.850605
22.30115;3.54755
22.35921;3.28057
22.47534;2.830226
22.59147;2.467681
22.70761;2.172783
22.82374;1.929876
22.93987;1.727478
23.056;1.557129
23.19149;1.390492
23.32698;1.251317
23.46247;1.133981
23.59795;1.034262
23.73344;0.9492419
23.86892;0.8772492
24.00441;0.8181854
24.03828;0.811039
24.07215;0.8121392
24.13989;0.8403265
24.1657;0.8508627
24.1999;0.8508631
24.2027;0.8499084
24.20553;0.848787
24.21315;0.8449912
24.22076;0.8401002
24.23599;0.8273029
24.26897;0.7900028
24.30195;0.7495697
24.34181;0.7095057
24.38166;0.6826385
24.46136;0.6511733
24.62076;0.6071564
24.93957;0.5379003
25.25838;0.4855039
25.57718;0.4454634
25.89599;0.4144024
26.2148;0.3907508
26.53361;0.3733735
26.69301;0.3668227
26.77271;0.3653641
26.81256;0.3668191
26.85241;0.3733454
26.8799;0.3837664
26.90738;0.4013268
26.93487;0.4266064
26.96235;0.4571171
26.99396;0.4906238
27.02556;0.5106025
27.0396;0.512544
27.06497;0.5041678
27.08608;0.4871125
27.10718;0.4642096
27.15408;0.4108059
27.17753;0.3899235
27.20097;0.3747173
27.22911;0.3630744
27.25725;0.35657
27.31352;0.3511417
27.42606;0.3479219
27.65115;0.3454316
28.21389;0.347679
28.77662;0.3598256
29.33936;0.3823005
29.90209;0.416627
30.18346;0.4378925
30.46483;0.4642108
30.7462;0.4953261
31.02756;0.5320783
31.30893;0.5755696
31.5903;0.6272274
31.87167;0.6889266
32.15303;0.7631546
32.41564;0.8467234
32.67825;0.9479516
32.94086;1.07172
33.20347;1.221726
33.46608;1.413337
33.59739;1.528176
33.72869;1.658758
33.86;1.808102
33.9913;1.979941
34.1226;2.179038
34.2539;2.411474
34.44148;2.81753
34.53527;3.061866
34.62906;3.340688
34.72285;3.660263
34.81664;4.02707
34.91043;4.451782
35.00422;4.951676
35.06284;5.310314
35.09215;5.504974
35.12146;5.710902
35.15077;5.928968
35.18008;6.160132
35.19474;6.280992
35.20939;6.405448
35.22404;6.53373
35.23869;6.665996
35.25394;6.808089
35.26918;6.954779
35.2768;7.029947
35.28442;7.106366
35.29204;7.184064
35.29966;7.26307
35.30963;7.368466
35.31959;7.476111
35.32662;7.553545
35.33307;7.625674
35.33952;7.698863
35.34714;7.786719
35.35476;7.876119
35.36238;7.967096
35.37;8.05969
35.37938;8.175947
35.38876;8.294786
35.39814;8.416284
35.40752;8.540521
35.4169;8.667582
35.42628;8.797551
35.43566;8.930519
35.44503;9.066432
35.455;9.214544
35.46496;9.366226
35.48489;9.681407
35.50482;10.01305
35.52475;10.36233
35.54468;10.73051
35.56461;11.11901
35.58454;11.52936
35.60447;11.96323
35.63027;12.56289
35.65606;13.20933
35.68185;13.90789
35.70764;14.66439
35.73344;15.48583
35.75923;16.37923
35.78502;17.35374
35.81081;18.41964
35.83661;19.58934
35.8624;20.87596
35.88819;22.29644
35.91398;23.87035
35.93977;25.62104
35.96556;27.57658
35.99135;29.77099
36.01714;32.24581
36.04294;35.0535
36.06873;38.25588
36.09452;41.93476
36.12031;46.19363
36.14611;51.1693
36.1719;57.037
36.19769;64.04257
36.21059;68.07559
36.22348;72.5291
36.23579;77.24011
36.2481;82.47275
36.26041;88.31807
36.27272;94.89059
36.28503;102.336
36.29734;110.8418
36.30965;120.6507
36.32196;132.0795
36.33427;145.5416
36.34658;161.5772
36.35889;180.8877
36.3712;204.3778
36.38351;233.2009
36.39582;268.8062
36.40198;289.7147
36.40813;312.9823
36.41429;338.967
36.42044;367.8906
36.42689;401.7858
36.43334;439.7281
36.43979;482.1515
36.44623;529.4353
36.45268;582.2015
36.45913;640.8698
36.46558;705.9358
36.47202;777.7763
36.47847;857.0959
36.48492;944.2477
36.49781;1143.524
36.51071;1378.619
36.5236;1650.587
36.53298;1871.657
36.54236;2111.325
36.56112;2639.347
36.59863;3796.641
36.62443;4536.551
36.63733;4843.653
36.65022;5088.732
36.66651;5291.371
36.6828;5359.401
36.69302;5330.343
36.70324;5246.83
36.72367;4929.441
36.74619;4391.211
36.76871;3730.407
36.80409;2641.015
36.82178;2142.515
36.83947;1702.813
36.84832;1508.078
36.85717;1330.782
36.86602;1170.807
36.87486;1027.819
36.88371;900.7164
36.89255;788.7905
36.9014;690.6439
36.91024;605.2699
36.91909;531.2121
36.92793;467.3874
36.93678;412.4449
36.94562;365.3742
36.95447;325.0203
36.96331;290.5248
36.97216;260.9601
36.981;235.6457
36.98864;216.6602
36.99628;199.9704
37.01156;172.2458
37.02684;150.4054
37.04212;132.9245
37.0574;118.6946
37.07268;106.9167
37.08796;97.01593
37.10323;88.5822
37.11851;81.30187
37.13379;74.95693
37.16434;64.44182
37.1949;56.09229
37.22545;49.32716
37.25119;44.56391
37.27692;40.47965
37.30265;36.94676
37.32838;33.86815
37.35412;31.16655
37.37985;28.78319
37.43131;24.78085
37.48278;21.5662
37.53424;18.94258
37.5857;16.77212
37.63716;14.95623
37.7015;13.07482
37.76583;11.5294
37.83016;10.24392
37.89449;9.162948
37.95882;8.24523
38.02315;7.459734
38.08748;6.782846
38.15181;6.195651
38.22258;5.634139
38.29334;5.144827
38.36411;4.715711
38.43487;4.337976
38.5764;3.707174
38.71792;3.205049
38.85945;2.798777
39.00097;2.46547
39.1425;2.188614
39.28402;1.956182
39.40625;1.784223
39.52848;1.634631
39.77293;1.388334
40.01739;1.192727
40.26184;1.03623
40.5063;0.9090916
40.75075;0.8044114
40.99521;0.7172055
41.23966;0.643821
41.44552;0.5907011
41.65137;0.5445445
42.01162;0.4763152
42.37187;0.420494
42.73212;0.3749401
42.91225;0.3555205
43.00231;0.3492866
43.04734;0.3506372
43.09237;0.3605158
43.11811;0.3725627
43.14384;0.3906152
43.18244;0.4290508
43.22103;0.4756825
43.25481;0.5129629
43.28858;0.5354578
43.30807;0.5383472
43.30947;0.5382387
43.31454;0.5374877
43.31961;0.5361778
43.32974;0.5319182
43.35407;0.5134564
43.3784;0.485805
43.40724;0.44661
43.44329;0.3975773
43.47933;0.3571703
43.51537;0.3287719
43.55141;0.310987
43.59106;0.299673
43.63071;0.2930413
43.71001;0.2848522
43.8686;0.2727858
44.18579;0.2521726
44.50298;0.2354385
44.66157;0.2281581
44.74087;0.2255248
44.82016;0.2256449
44.849;0.2279069
44.87783;0.2332012
44.90667;0.2440285
44.92109;0.2526533
44.9355;0.2641784
44.94992;0.2792694
44.96434;0.2985848
44.97876;0.3227488
44.99317;0.3522477
45.00759;0.3874294
45.02201;0.4282887
45.05084;0.5250953
45.09049;0.6754741
45.11032;0.7465645
45.13014;0.8063485
45.14366;0.8374953
45.15718;0.858956
45.17603;0.8706752
45.17743;0.8706612
45.18191;0.8697867
45.18638;0.8676584
45.19533;0.8596802
45.21858;0.8172787
45.23436;0.7732515
45.25013;0.7201562
45.28168;0.5996287
45.29496;0.5480443
45.32153;0.4516856
45.33482;0.4090479
45.3481;0.3710001
45.36139;0.3377293
45.37467;0.3092639
45.38795;0.2853466
45.40123;0.2655985
45.41452;0.249539
45.4278;0.2366813
45.45437;0.2185101
45.48094;0.2074453
45.5075;0.2007244
45.54404;0.1953024
45.58057;0.1920048
45.65363;0.1877131
45.79975;0.1815817
46.09199;0.1711739
46.38424;0.1629151
46.53036;0.1596975
46.60342;0.1597956
46.63995;0.1616814
46.67648;0.1662534
46.70305;0.1720898
46.72962;0.1805386
46.75619;0.1916603
46.78275;0.2049094
46.82925;0.2290841
46.8525;0.238875
46.87574;0.2452924
46.89746;0.2473664
46.90027;0.2473335
46.90989;0.2466919
46.9195;0.2452444
46.94743;0.2368413
